nSeq	I1	I2	O1	O2	A1	A2	A3	A4	A5	A6
0	0	0	0	0	513	481	0	516	38	0
1	0	0	0	0	513	476	0	510	38	0
2	0	0	0	0	506	476	0	509	39	0
3	0	0	0	0	511	503	0	511	38	0
4	0	0	0	0	511	474	0	521	38	0
5	0	0	1	0	519	521	0	512	38	0
6	0	0	1	0	521	480	0	513	38	0
7	0	0	1	0	522	502	0	505	38	0
8	0	0	1	0	516	512	0	503	38	0
9	0	0	1	0	518	506	0	515	38	0
10	0	0	1	0	512	480	0	510	38	0
11	0	0	1	0	518	512	0	510	38	0
12	0	0	1	0	513	488	0	505	38	0
13	0	0	1	0	515	454	0	513	38	0
14	0	0	1	0	518	463	0	512	38	0
15	0	0	1	0	519	408	0	511	38	0
0	0	0	1	0	517	484	0	508	38	0
1	0	0	1	0	520	451	0	520	38	0
2	0	0	1	0	519	435	0	512	38	0
3	0	0	1	0	513	465	0	508	38	0
4	0	0	1	0	516	505	0	504	38	0
5	0	0	1	0	519	428	0	513	38	0
6	0	0	1	0	522	574	0	509	38	0
7	0	0	1	0	516	737	0	515	38	0
8	0	0	1	0	514	692	0	507	38	0
9	0	0	1	0	519	435	0	513	38	0
10	0	0	1	0	517	395	0	516	38	0
11	0	0	1	0	520	435	0	509	38	0
12	0	0	1	0	512	493	0	516	38	0
13	0	0	1	0	517	495	0	506	38	0
14	0	0	1	0	511	409	0	508	38	0
15	0	0	1	0	525	469	0	508	38	0
0	0	0	1	0	518	496	0	502	38	0
1	0	0	1	0	514	465	0	511	38	0
2	0	0	1	0	523	500	0	513	38	0
3	0	0	1	0	515	426	0	513	38	0
4	0	0	1	0	514	484	0	509	38	0
5	0	0	1	0	517	477	0	510	38	0
6	0	0	1	0	515	521	0	508	38	0
7	0	0	1	0	516	513	0	528	38	0
8	0	0	1	0	516	458	0	513	38	0
9	0	0	1	0	512	555	0	510	38	0
10	0	0	1	0	517	508	0	515	39	0
11	0	0	1	0	518	544	0	508	38	0
12	0	0	1	0	509	557	0	509	39	0
13	0	0	1	0	515	562	0	508	38	0
14	0	0	1	0	516	543	0	528	38	0
15	0	0	1	0	519	609	0	511	38	0
0	0	0	1	0	514	501	0	515	38	0
1	0	0	1	0	516	474	0	511	38	0
2	0	0	1	0	516	500	0	510	39	0
3	0	0	1	0	514	433	0	520	38	0
4	0	0	1	0	518	476	0	510	38	0
5	0	0	1	0	512	439	0	513	38	0
6	0	0	1	0	520	459	0	515	38	0
7	0	0	1	0	516	440	0	508	38	0
8	0	0	1	0	515	461	0	515	38	0
9	0	0	1	0	515	425	0	513	38	0
10	0	0	1	0	515	473	0	513	38	0
11	0	0	1	0	512	464	0	519	38	0
12	0	0	1	0	512	440	0	519	38	0
13	0	0	1	0	519	498	0	513	38	0
14	0	0	1	0	515	512	0	524	38	0
15	0	0	1	0	518	524	0	513	38	0
0	0	0	1	0	519	578	0	524	38	0
1	0	0	1	0	513	579	0	515	38	0
2	0	0	1	0	518	597	0	520	38	0
3	0	0	1	0	516	581	0	519	38	0
4	0	0	1	0	516	567	0	514	38	0
5	0	0	1	0	520	556	0	516	38	0
6	0	0	1	0	521	573	0	520	38	0
7	0	0	1	0	517	575	0	522	38	0
8	0	0	1	0	523	572	0	521	38	0
9	0	0	1	0	511	547	0	513	38	0
10	0	0	1	0	513	550	0	507	38	0
11	0	0	1	0	509	564	0	510	38	0
12	0	0	1	0	523	560	0	519	38	0
13	0	0	1	0	512	548	0	516	38	0
14	0	0	1	0	512	541	0	521	38	0
15	0	0	1	0	515	505	0	511	38	0
0	0	0	1	0	513	521	0	521	38	0
1	0	0	1	0	519	529	0	523	39	0
2	0	0	1	0	517	529	0	523	39	0
3	0	0	1	0	516	518	0	522	38	0
4	0	0	1	0	508	545	0	519	38	0
5	0	0	1	0	512	600	0	521	38	0
6	0	0	1	0	516	723	0	515	38	0
7	0	0	1	0	516	630	0	504	38	0
8	0	0	1	0	507	445	0	519	38	0
9	0	0	1	0	515	462	0	516	38	0
10	0	0	1	0	514	464	0	521	38	0
11	0	0	1	0	513	510	0	518	38	0
12	0	0	1	0	518	539	0	516	38	0
13	0	0	1	0	519	515	0	522	38	0
14	0	0	1	0	515	499	0	518	38	0
15	0	0	1	0	517	516	0	520	38	0
0	0	0	1	0	514	515	0	517	38	0
1	0	0	1	0	516	525	0	514	38	0
2	0	0	1	0	518	533	0	518	38	0
3	0	0	1	0	520	528	0	521	38	0
4	0	0	1	0	514	524	0	520	38	0
5	0	0	1	0	520	538	0	522	38	0
6	0	0	1	0	516	523	0	511	38	0
7	0	0	1	0	512	578	0	523	38	0
8	0	0	1	0	515	554	0	518	38	0
9	0	0	1	0	519	558	0	516	38	0
10	0	0	1	0	514	577	0	512	38	0
11	0	0	1	0	510	559	0	513	38	0
12	0	0	1	0	521	577	0	514	38	0
13	0	0	1	0	518	562	0	510	38	0
14	0	0	1	0	515	532	0	512	38	0
15	0	0	1	0	512	564	0	515	38	0
0	0	0	1	0	503	523	0	512	38	0
1	0	0	1	0	519	460	0	516	38	0
2	0	0	1	0	521	468	0	511	38	0
3	0	0	1	0	517	438	0	512	38	0
4	0	0	1	0	519	438	0	507	38	0
5	0	0	1	0	514	449	0	514	38	0
6	0	0	1	0	513	478	0	510	38	0
7	0	0	1	0	519	452	0	505	39	0
8	0	0	1	0	524	462	0	509	38	0
9	0	0	1	0	511	477	0	509	38	0
10	0	0	1	0	516	487	0	513	38	0
11	0	0	1	0	520	463	0	514	38	0
12	0	0	1	0	508	499	0	507	38	0
13	0	0	1	0	515	495	0	512	38	0
14	0	0	1	0	515	514	0	513	38	0
15	0	0	1	0	521	512	0	510	38	0
0	0	0	1	0	510	495	0	508	38	0
1	0	0	1	0	517	574	0	509	38	0
2	0	0	1	0	519	524	0	502	38	0
3	0	0	1	0	515	562	0	513	38	0
4	0	0	1	0	518	548	0	505	38	0
5	0	0	1	0	508	584	0	518	38	0
6	0	0	1	0	519	590	0	513	38	0
7	0	0	1	0	507	547	0	508	38	0
8	0	0	1	0	512	569	0	511	38	0
9	0	0	1	0	514	542	0	510	38	0
10	0	0	1	0	517	555	0	513	38	0
11	0	0	1	0	511	520	0	505	38	0
12	0	0	1	0	510	557	0	510	38	0
13	0	0	1	0	520	517	0	506	38	0
14	0	0	1	0	514	559	0	508	38	0
15	0	0	1	0	516	544	0	512	38	0
0	0	0	1	0	523	509	0	510	38	0
1	0	0	1	0	512	539	0	510	38	0
2	0	0	1	0	511	509	0	516	38	0
3	0	0	1	0	509	595	0	505	38	0
4	0	0	1	0	515	750	0	510	37	0
5	0	0	1	0	512	701	0	509	38	0
6	0	0	1	0	515	494	0	508	37	0
7	0	0	1	0	517	445	0	512	38	0
8	0	0	1	0	519	453	0	510	37	0
9	0	0	1	0	511	490	0	507	38	0
10	0	0	1	0	519	492	0	518	38	0
11	0	0	1	0	512	496	0	511	38	0
12	0	0	1	0	515	483	0	513	38	0
13	0	0	1	0	512	517	0	504	38	0
14	0	0	1	0	519	514	0	502	38	0
15	0	0	1	0	520	491	0	504	38	0
0	0	0	1	0	519	505	0	514	38	0
1	0	0	1	0	511	499	0	516	38	0
2	0	0	1	0	507	488	0	514	38	0
3	0	0	1	0	511	546	0	509	38	0
4	0	0	1	0	519	513	0	513	38	0
5	0	0	1	0	514	532	0	512	38	0
6	0	0	1	0	512	522	0	515	38	0
7	0	0	1	0	513	561	0	509	38	0
8	0	0	1	0	518	560	0	512	38	0
9	0	0	1	0	515	594	0	510	38	0
10	0	0	1	0	517	544	0	513	38	0
11	0	0	1	0	512	550	0	511	38	0
12	0	0	1	0	515	550	0	508	38	0
13	0	0	1	0	515	523	0	510	38	0
14	0	0	1	0	515	504	0	518	38	0
15	0	0	1	0	520	512	0	514	37	0
0	0	0	1	0	516	482	0	517	37	0
1	0	0	1	0	521	491	0	513	37	0
2	0	0	1	0	514	466	0	513	38	0
3	0	0	1	0	519	427	0	516	38	0
4	0	0	1	0	507	474	0	511	38	0
5	0	0	1	0	513	431	0	512	39	0
6	0	0	1	0	512	476	0	513	39	0
7	0	0	1	0	520	490	0	517	39	0
8	0	0	1	0	521	451	0	518	38	0
9	0	0	1	0	525	483	0	523	38	0
10	0	0	1	0	516	480	0	519	38	0
11	0	0	1	0	524	493	0	512	38	0
12	0	0	1	0	515	512	0	511	38	0
13	0	0	1	0	512	534	0	510	38	0
14	0	0	1	0	515	503	0	519	38	0
15	0	0	1	0	515	489	0	516	38	0
0	0	0	1	0	518	513	0	516	38	0
1	0	0	1	0	525	518	0	513	38	0
2	0	0	1	0	519	519	0	501	38	0
3	0	0	1	0	515	542	0	510	38	0
4	0	0	1	0	518	504	0	510	38	0
5	0	0	1	0	516	510	0	513	38	0
6	0	0	1	0	517	513	0	518	38	0
7	0	0	1	0	517	510	0	514	38	0
8	0	0	1	0	519	522	0	509	38	0
9	0	0	1	0	518	509	0	512	38	0
10	0	0	1	0	519	497	0	510	38	0
11	0	0	1	0	524	491	0	515	38	0
12	0	0	1	0	517	486	0	526	38	0
13	0	0	1	0	522	479	0	511	38	0
14	0	0	1	0	521	476	0	512	38	0
15	0	0	1	0	521	487	0	516	38	0
0	0	0	1	0	515	470	0	507	38	0
1	0	0	1	0	516	596	0	510	38	0
2	0	0	1	0	516	739	0	521	38	0
3	0	0	1	0	520	709	0	514	38	0
4	0	0	1	0	521	446	0	511	38	0
5	0	0	1	0	513	383	0	519	38	0
6	0	0	1	0	514	438	0	518	38	0
7	0	0	1	0	520	440	0	512	38	0
8	0	0	1	0	514	476	0	511	38	0
9	0	0	1	0	518	468	0	518	38	0
10	0	0	1	0	521	448	0	512	38	0
11	0	0	1	0	523	450	0	510	38	0
12	0	0	1	0	511	472	0	523	38	0
13	0	0	1	0	516	470	0	513	38	0
14	0	0	1	0	515	491	0	512	38	0
15	0	0	1	0	512	462	0	512	38	0
0	0	0	1	0	525	490	0	511	38	0
1	0	0	1	0	515	506	0	512	38	0
2	0	0	1	0	519	520	0	510	38	0
3	0	0	1	0	518	503	0	513	38	0
4	0	0	1	0	519	479	0	514	38	0
5	0	0	1	0	513	534	0	513	38	0
6	0	0	1	0	513	535	0	511	38	0
7	0	0	1	0	510	577	0	506	38	0
8	0	0	1	0	512	554	0	510	38	0
9	0	0	1	0	518	549	0	516	38	0
10	0	0	1	0	515	547	0	522	38	0
11	0	0	1	0	517	520	0	511	38	0
12	0	0	1	0	516	522	0	515	38	0
13	0	0	1	0	516	499	0	524	38	0
14	0	0	1	0	512	454	0	515	38	0
15	0	0	1	0	513	447	0	515	38	0
0	0	0	1	0	517	423	0	522	38	0
1	0	0	1	0	514	434	0	517	38	0
2	0	0	1	0	517	454	0	521	38	0
3	0	0	1	0	515	439	0	520	38	0
4	0	0	1	0	512	468	0	519	38	0
5	0	0	1	0	516	467	0	520	38	0
6	0	0	1	0	518	445	0	521	38	0
7	0	0	1	0	519	470	0	521	38	0
8	0	0	1	0	516	473	0	527	38	0
9	0	0	1	0	522	470	0	519	38	0
10	0	0	1	0	518	451	0	520	38	0
11	0	0	1	0	514	496	0	525	38	0
12	0	0	1	0	518	476	0	514	38	0
13	0	0	1	0	512	493	0	515	38	0
14	0	0	1	0	519	552	0	514	38	0
15	0	0	1	0	515	489	0	512	38	0
0	0	0	1	0	516	518	0	521	38	0
1	0	0	1	0	516	508	0	511	38	0
2	0	0	1	0	515	512	0	518	38	0
3	0	0	1	0	514	503	0	515	38	0
4	0	0	1	0	516	512	0	520	38	0
5	0	0	1	0	516	530	0	521	38	0
6	0	0	1	0	508	508	0	520	38	0
7	0	0	1	0	511	531	0	511	38	0
8	0	0	1	0	515	537	0	510	38	0
9	0	0	1	0	517	542	0	510	38	0
10	0	0	1	0	528	531	0	517	38	0
11	0	0	1	0	514	518	0	509	38	0
12	0	0	1	0	517	512	0	513	38	0
13	0	0	1	0	519	505	0	519	38	0
14	0	0	1	0	512	493	0	517	38	0
15	0	0	1	0	515	496	0	516	38	0
0	0	0	1	0	517	529	0	519	38	0
1	0	0	1	0	513	528	0	521	38	0
2	0	0	1	0	519	507	0	514	38	0
3	0	0	1	0	513	485	0	514	38	0
4	0	0	1	0	516	473	0	513	38	0
5	0	0	1	0	519	630	0	511	38	0
6	0	0	1	0	524	807	0	513	38	0
7	0	0	1	0	513	740	0	517	38	0
8	0	0	1	0	511	477	0	510	38	0
9	0	0	1	0	513	404	0	513	38	0
10	0	0	1	0	511	477	0	518	38	0
11	0	0	1	0	516	494	0	511	38	0
12	0	0	1	0	520	489	0	511	38	0
13	0	0	1	0	520	481	0	516	38	0
14	0	0	1	0	517	494	0	502	38	0
15	0	0	1	0	513	507	0	511	38	0
0	0	0	1	0	515	529	0	517	38	0
1	0	0	1	0	508	502	0	517	38	0
2	0	0	1	0	525	544	0	516	38	0
3	0	0	1	0	517	519	0	513	38	0
4	0	0	1	0	513	514	0	517	38	0
5	0	0	1	0	519	535	0	514	38	0
6	0	0	1	0	515	530	0	508	38	0
7	0	0	1	0	516	559	0	512	38	0
8	0	0	1	0	515	570	0	506	38	0
9	0	0	1	0	520	583	0	511	38	0
10	0	0	1	0	511	577	0	519	38	0
11	0	0	1	0	517	594	0	514	38	0
12	0	0	1	0	518	607	0	512	38	0
13	0	0	1	0	509	591	0	513	38	0
14	0	0	1	0	516	583	0	514	38	0
15	0	0	1	0	517	560	0	519	38	0
0	0	0	1	0	517	532	0	512	38	0
1	0	0	1	0	514	482	0	510	38	0
2	0	0	1	0	516	486	0	514	38	0
3	0	0	1	0	517	459	0	519	38	0
4	0	0	1	0	521	472	0	518	38	0
5	0	0	1	0	516	454	0	512	38	0
6	0	0	1	0	518	467	0	508	38	0
7	0	0	1	0	516	482	0	516	38	0
8	0	0	1	0	513	470	0	516	38	0
9	0	0	1	0	519	461	0	513	38	0
10	0	0	1	0	519	462	0	507	38	0
11	0	0	1	0	509	482	0	515	38	0
12	0	0	1	0	515	480	0	508	38	0
13	0	0	1	0	513	492	0	515	38	0
14	0	0	1	0	517	501	0	526	38	0
15	0	0	1	0	513	503	0	514	38	0
0	0	0	1	0	516	520	0	514	38	0
1	0	0	1	0	515	490	0	513	38	0
2	0	0	1	0	524	547	0	503	38	0
3	0	0	1	0	515	505	0	509	38	0
4	0	0	1	0	512	550	0	507	38	0
5	0	0	1	0	520	492	0	510	38	0
6	0	0	1	0	515	530	0	515	38	0
7	0	0	1	0	514	526	0	512	38	0
8	0	0	1	0	513	570	0	511	38	0
9	0	0	1	0	514	513	0	507	38	0
10	0	0	1	0	517	540	0	516	38	0
11	0	0	1	0	520	512	0	515	38	0
12	0	0	1	0	516	547	0	506	38	0
13	0	0	1	0	513	565	0	516	38	0
14	0	0	1	0	518	518	0	519	38	0
15	0	0	1	0	513	548	0	512	38	0
0	0	0	1	0	518	505	0	519	38	0
1	0	0	1	0	524	517	0	515	38	0
2	0	0	1	0	513	524	0	521	38	0
3	0	0	1	0	511	513	0	516	38	0
4	0	0	1	0	517	524	0	518	38	0
5	0	0	1	0	509	521	0	514	38	0
6	0	0	1	0	513	515	0	519	38	0
7	0	0	1	0	515	460	0	510	38	0
8	0	0	1	0	513	529	0	511	38	0
9	0	0	1	0	517	726	0	515	38	0
10	0	0	1	0	521	843	0	523	38	0
11	0	0	1	0	519	608	0	516	38	0
12	0	0	1	0	521	391	0	512	38	0
13	0	0	1	0	521	433	0	513	38	0
14	0	0	1	0	515	496	0	508	38	0
15	0	0	1	0	511	504	0	506	38	0
0	0	0	1	0	516	491	0	519	38	0
1	0	0	1	0	520	490	0	514	38	0
2	0	0	1	0	518	524	0	519	38	0
3	0	0	1	0	513	504	0	515	38	0
4	0	0	1	0	519	506	0	510	38	0
5	0	0	1	0	517	518	0	513	38	0
6	0	0	1	0	511	518	0	512	38	0
7	0	0	1	0	509	542	0	514	38	0
8	0	0	1	0	519	536	0	518	38	0
9	0	0	1	0	523	540	0	515	38	0
10	0	0	1	0	512	541	0	510	38	0
11	0	0	1	0	518	560	0	509	38	0
12	0	0	1	0	516	559	0	515	38	0
13	0	0	1	0	528	580	0	519	38	0
14	0	0	1	0	516	580	0	511	38	0
15	0	0	1	0	512	602	0	511	38	0
0	0	0	1	0	521	592	0	521	38	0
1	0	0	1	0	516	597	0	519	38	0
2	0	0	1	0	511	564	0	514	38	0
3	0	0	1	0	519	539	0	513	38	0
4	0	0	1	0	503	501	0	514	38	0
5	0	0	1	0	518	507	0	512	38	0
6	0	0	1	0	508	497	0	513	38	0
7	0	0	1	0	515	475	0	512	38	0
8	0	0	1	0	512	475	0	516	38	0
9	0	0	1	0	514	459	0	505	38	0
10	0	0	1	0	517	463	0	514	38	0
11	0	0	1	0	515	491	0	520	38	0
12	0	0	1	0	507	479	0	513	38	0
13	0	0	1	0	519	486	0	517	38	0
14	0	0	1	0	509	459	0	513	38	0
15	0	0	1	0	513	489	0	513	38	0
0	0	0	1	0	518	503	0	507	38	0
1	0	0	1	0	514	489	0	511	38	0
2	0	0	1	0	520	478	0	511	38	0
3	0	0	1	0	525	526	0	513	38	0
4	0	0	1	0	517	519	0	508	38	0
5	0	0	1	0	518	514	0	510	38	0
6	0	0	1	0	520	518	0	515	38	0
7	0	0	1	0	513	524	0	514	38	0
8	0	0	1	0	517	543	0	510	38	0
9	0	0	1	0	519	511	0	515	38	0
10	0	0	1	0	517	529	0	519	38	0
11	0	0	1	0	515	514	0	516	38	0
12	0	0	1	0	515	520	0	511	38	0
13	0	0	1	0	518	521	0	513	38	0
14	0	0	1	0	512	521	0	518	38	0
15	0	0	1	0	516	519	0	511	38	0
0	0	0	1	0	515	516	0	516	38	0
1	0	0	1	0	511	541	0	513	38	0
2	0	0	1	0	505	528	0	512	38	0
3	0	0	1	0	519	538	0	512	38	0
4	0	0	1	0	517	547	0	509	38	0
5	0	0	1	0	513	528	0	514	38	0
6	0	0	1	0	519	542	0	509	38	0
7	0	0	1	0	512	526	0	512	38	0
8	0	0	1	0	524	507	0	506	38	0
9	0	0	1	0	505	526	0	510	38	0
10	0	0	1	0	514	507	0	512	38	0
11	0	0	1	0	511	514	0	508	38	0
12	0	0	1	0	506	525	0	513	38	0
13	0	0	1	0	512	515	0	515	38	0
14	0	0	1	0	519	518	0	509	38	0
15	0	0	1	0	518	491	0	506	38	0
0	0	0	1	0	516	525	0	510	38	0
1	0	0	1	0	519	468	0	514	38	0
2	0	0	1	0	513	531	0	511	38	0
3	0	0	1	0	506	709	0	511	38	0
4	0	0	1	0	517	853	0	504	38	0
5	0	0	1	0	510	610	0	517	38	0
6	0	0	1	0	512	393	0	509	38	0
7	0	0	1	0	511	446	0	514	38	0
8	0	0	1	0	516	479	0	511	38	0
9	0	0	1	0	515	491	0	512	38	0
10	0	0	1	0	511	487	0	514	38	0
11	0	0	1	0	516	506	0	513	38	0
12	0	0	1	0	517	511	0	516	38	0
13	0	0	1	0	519	506	0	511	38	0
14	0	0	1	0	507	487	0	517	38	0
15	0	0	1	0	511	496	0	510	38	0
0	0	0	1	0	517	523	0	518	38	0
1	0	0	1	0	519	522	0	513	38	0
2	0	0	1	0	511	527	0	506	38	0
3	0	0	1	0	515	553	0	507	38	0
4	0	0	1	0	510	545	0	508	38	0
5	0	0	1	0	519	558	0	512	38	0
6	0	0	1	0	516	567	0	511	38	0
7	0	0	1	0	516	587	0	513	38	0
8	0	0	1	0	516	577	0	513	38	0
9	0	0	1	0	513	594	0	510	38	0
10	0	0	1	0	514	559	0	511	38	0
11	0	0	1	0	513	575	0	509	38	0
12	0	0	1	0	518	583	0	506	38	0
13	0	0	1	0	510	540	0	514	38	0
14	0	0	1	0	512	500	0	511	38	0
15	0	0	1	0	518	506	0	505	38	0
0	0	0	1	0	515	457	0	508	38	0
1	0	0	1	0	519	472	0	507	38	0
2	0	0	1	0	515	455	0	517	38	0
3	0	0	1	0	517	455	0	519	38	0
4	0	0	1	0	511	438	0	510	38	0
5	0	0	1	0	519	462	0	514	38	0
6	0	0	1	0	518	466	0	507	38	0
7	0	0	1	0	515	467	0	509	38	0
8	0	0	1	0	516	457	0	515	38	0
9	0	0	1	0	513	472	0	508	38	0
10	0	0	1	0	516	495	0	518	38	0
11	0	0	1	0	525	488	0	518	38	0
12	0	0	1	0	514	511	0	518	38	0
13	0	0	1	0	508	483	0	522	38	0
14	0	0	1	0	511	487	0	531	38	0
15	0	0	1	0	521	488	0	520	38	0
0	0	0	1	0	518	496	0	526	38	0
1	0	0	1	0	522	510	0	514	38	0
2	0	0	1	0	510	526	0	523	38	0
3	0	0	1	0	513	500	0	522	38	0
4	0	0	1	0	514	499	0	515	38	0
5	0	0	1	0	513	509	0	515	38	0
6	0	0	1	0	516	514	0	512	38	0
7	0	0	1	0	516	502	0	514	38	0
8	0	0	1	0	519	512	0	511	38	0
9	0	0	1	0	516	514	0	519	38	0
10	0	0	1	0	514	532	0	511	38	0
11	0	0	1	0	511	512	0	517	38	0
12	0	0	1	0	516	493	0	515	38	0
13	0	0	1	0	517	541	0	514	38	0
14	0	0	1	0	521	526	0	512	38	0
15	0	0	1	0	511	500	0	511	38	0
0	0	0	1	0	523	539	0	519	38	0
1	0	0	1	0	515	532	0	513	38	0
2	0	0	1	0	510	510	0	515	38	0
3	0	0	1	0	516	523	0	521	39	0
4	0	0	1	0	511	496	0	520	37	0
5	0	0	1	0	512	506	0	524	38	0
6	0	0	1	0	513	496	0	516	38	0
7	0	0	1	0	511	515	0	515	38	0
8	0	0	1	0	514	523	0	512	38	0
9	0	0	1	0	515	509	0	512	38	0
10	0	0	1	0	517	471	0	516	38	0
11	0	0	1	0	517	490	0	515	38	0
12	0	0	1	0	516	465	0	502	38	0
13	0	0	1	0	514	570	0	509	38	0
14	0	0	1	0	517	782	0	523	38	0
15	0	0	1	0	511	792	0	518	38	0
0	0	0	1	0	515	476	0	521	38	0
1	0	0	1	0	511	411	0	518	38	0
2	0	0	1	0	511	406	0	517	38	0
3	0	0	1	0	521	480	0	512	38	0
4	0	0	1	0	516	466	0	526	38	0
5	0	0	1	0	512	474	0	510	38	0
6	0	0	1	0	511	471	0	513	38	0
7	0	0	1	0	515	499	0	518	38	0
8	0	0	1	0	515	480	0	517	38	0
9	0	0	1	0	511	492	0	512	38	0
10	0	0	1	0	515	518	0	517	38	0
11	0	0	1	0	511	485	0	514	38	0
12	0	0	1	0	514	514	0	512	38	0
13	0	0	1	0	509	515	0	514	38	0
14	0	0	1	0	512	529	0	524	38	0
15	0	0	1	0	511	553	0	515	38	0
0	0	0	1	0	508	544	0	513	37	0
1	0	0	1	0	516	555	0	514	38	0
2	0	0	1	0	526	573	0	512	38	0
3	0	0	1	0	524	605	0	515	38	0
4	0	0	1	0	526	564	0	519	39	0
5	0	0	1	0	514	590	0	515	39	0
6	0	0	1	0	515	593	0	519	39	0
7	0	0	1	0	518	566	0	515	39	0
8	0	0	1	0	515	549	0	510	38	0
9	0	0	1	0	512	509	0	524	38	0
10	0	0	1	0	513	475	0	524	38	0
11	0	0	1	0	519	508	0	509	38	0
12	0	0	1	0	515	463	0	513	38	0
13	0	0	1	0	512	466	0	512	38	0
14	0	0	1	0	519	486	0	507	38	0
15	0	0	1	0	523	465	0	507	38	0
0	0	0	1	0	513	452	0	517	37	0
1	0	0	1	0	518	487	0	509	38	0
2	0	0	1	0	521	464	0	514	38	0
3	0	0	1	0	520	473	0	513	38	0
4	0	0	1	0	514	488	0	514	38	0
5	0	0	1	0	513	491	0	514	38	0
6	0	0	1	0	513	513	0	511	37	0
7	0	0	1	0	517	509	0	511	38	0
8	0	0	1	0	520	515	0	506	38	0
9	0	0	1	0	518	504	0	508	38	0
10	0	0	1	0	521	483	0	508	38	0
11	0	0	1	0	516	526	0	515	38	0
12	0	0	1	0	513	501	0	519	38	0
13	0	0	1	0	512	529	0	512	38	0
14	0	0	1	0	518	508	0	508	38	0
15	0	0	1	0	519	526	0	508	38	0
0	0	0	1	0	518	510	0	504	38	0
1	0	0	1	0	517	512	0	514	38	0
2	0	0	1	0	520	493	0	504	38	0
3	0	0	1	0	515	505	0	512	38	0
4	0	0	1	0	510	511	0	507	38	0
5	0	0	1	0	522	522	0	507	39	0
6	0	0	1	0	518	521	0	512	38	0
7	0	0	1	0	514	515	0	516	38	0
8	0	0	1	0	520	505	0	508	38	0
9	0	0	1	0	516	508	0	508	38	0
10	0	0	1	0	514	505	0	505	38	0
11	0	0	1	0	516	546	0	513	38	0
12	0	0	1	0	518	515	0	519	38	0
13	0	0	1	0	515	525	0	512	39	0
14	0	0	1	0	524	512	0	510	38	0
15	0	0	1	0	516	511	0	509	38	0
0	0	0	1	0	511	488	0	508	38	0
1	0	0	1	0	512	506	0	509	38	0
2	0	0	1	0	518	482	0	510	38	0
3	0	0	1	0	511	492	0	511	38	0
4	0	0	1	0	511	526	0	521	38	0
5	0	0	1	0	519	501	0	507	38	0
6	0	0	1	0	518	450	0	509	38	0
7	0	0	1	0	517	542	0	513	38	0
8	0	0	1	0	521	719	0	515	38	0
9	0	0	1	0	525	807	0	519	38	0
10	0	0	1	0	515	565	0	516	38	0
11	0	0	1	0	519	390	0	513	38	0
12	0	0	1	0	513	400	0	513	38	0
13	0	0	1	0	521	485	0	508	38	0
14	0	0	1	0	513	478	0	522	38	0
15	0	0	1	0	519	486	0	513	38	0
0	0	0	1	0	519	476	0	520	38	0
1	0	0	1	0	519	509	0	515	38	0
2	0	0	1	0	518	459	0	531	38	0
3	0	0	1	0	514	499	0	512	38	0
4	0	0	1	0	522	477	0	520	38	0
5	0	0	1	0	522	505	0	515	38	0
6	0	0	1	0	510	501	0	515	38	0
7	0	0	1	0	517	516	0	512	38	0
8	0	0	1	0	508	517	0	505	38	0
9	0	0	1	0	508	540	0	512	38	0
10	0	0	1	0	512	529	0	514	38	0
11	0	0	1	0	510	534	0	519	38	0
12	0	0	1	0	515	547	0	519	38	0
13	0	0	1	0	513	569	0	514	38	0
14	0	0	1	0	513	553	0	513	38	0
15	0	0	1	0	514	593	0	515	38	0
0	0	0	1	0	519	567	0	516	38	0
1	0	0	1	0	519	542	0	517	38	0
2	0	0	1	0	514	533	0	519	38	0
3	0	0	1	0	518	527	0	513	38	0
4	0	0	1	0	523	475	0	516	38	0
5	0	0	1	0	516	474	0	513	38	0
6	0	0	1	0	516	432	0	510	38	0
7	0	0	1	0	518	448	0	515	38	0
8	0	0	1	0	516	451	0	515	38	0
9	0	0	1	0	519	447	0	517	38	0
10	0	0	1	0	511	450	0	514	38	0
11	0	0	1	0	526	470	0	522	38	0
12	0	0	1	0	513	459	0	514	38	0
13	0	0	1	0	511	467	0	515	38	0
14	0	0	1	0	521	474	0	513	38	0
15	0	0	1	0	515	473	0	509	38	0
0	0	0	1	0	516	476	0	514	38	0
1	0	0	1	0	508	509	0	512	38	0
2	0	0	1	0	517	494	0	517	38	0
3	0	0	1	0	512	504	0	516	38	0
4	0	0	1	0	519	497	0	511	38	0
5	0	0	1	0	522	504	0	513	38	0
6	0	0	1	0	515	480	0	512	38	0
7	0	0	1	0	519	505	0	514	38	0
8	0	0	1	0	519	509	0	520	38	0
9	0	0	1	0	515	526	0	509	38	0
10	0	0	1	0	513	510	0	511	38	0
11	0	0	1	0	514	499	0	514	38	0
12	0	0	1	0	513	508	0	513	38	0
13	0	0	1	0	522	505	0	517	38	0
14	0	0	1	0	513	512	0	520	38	0
15	0	0	1	0	511	540	0	511	38	0
0	0	0	1	0	513	509	0	518	38	0
1	0	0	1	0	510	524	0	520	38	0
2	0	0	1	0	516	507	0	513	38	0
3	0	0	1	0	516	535	0	516	38	0
4	0	0	1	0	528	528	0	513	38	0
5	0	0	1	0	512	534	0	514	38	0
6	0	0	1	0	513	518	0	523	38	0
7	0	0	1	0	518	513	0	518	38	0
8	0	0	1	0	516	503	0	531	38	0
9	0	0	1	0	517	517	0	511	38	0
10	0	0	1	0	521	488	0	517	38	0
11	0	0	1	0	514	519	0	525	38	0
12	0	0	1	0	516	514	0	517	38	0
13	0	0	1	0	511	497	0	514	38	0
14	0	0	1	0	518	504	0	511	38	0
15	0	0	1	0	517	481	0	510	38	0
0	0	0	1	0	515	495	0	514	38	0
1	0	0	1	0	509	698	0	513	38	0
2	0	0	1	0	516	826	0	508	38	0
3	0	0	1	0	512	634	0	515	38	0
4	0	0	1	0	518	396	0	521	38	0
5	0	0	1	0	516	405	0	514	38	0
6	0	0	1	0	518	480	0	514	38	0
7	0	0	1	0	515	518	0	511	38	0
8	0	0	1	0	513	448	0	519	38	0
9	0	0	1	0	512	493	0	515	38	0
10	0	0	1	0	511	482	0	514	38	0
11	0	0	1	0	516	494	0	517	38	0
12	0	0	1	0	517	501	0	508	38	0
13	0	0	1	0	515	510	0	517	38	0
14	0	0	1	0	513	510	0	514	38	0
15	0	0	1	0	516	527	0	511	38	0
0	0	0	1	0	518	514	0	504	38	0
1	0	0	1	0	519	543	0	515	38	0
2	0	0	1	0	518	529	0	515	38	0
3	0	0	1	0	520	548	0	516	38	0
4	0	0	1	0	518	515	0	512	38	0
5	0	0	1	0	512	579	0	519	38	0
6	0	0	1	0	514	560	0	517	38	0
7	0	0	1	0	519	605	0	513	38	0
8	0	0	1	0	515	588	0	511	38	0
9	0	0	1	0	519	598	0	516	38	0
10	0	0	1	0	512	546	0	516	38	0
11	0	0	1	0	511	569	0	510	38	0
12	0	0	1	0	505	502	0	512	38	0
13	0	0	1	0	521	489	0	510	38	0
14	0	0	1	0	514	481	0	514	38	0
15	0	0	1	0	512	480	0	518	38	0
0	0	0	1	0	515	451	0	524	38	0
1	0	0	1	0	517	436	0	513	38	0
2	0	0	1	0	513	431	0	510	38	0
3	0	0	1	0	516	459	0	516	39	0
4	0	0	1	0	515	435	0	522	38	0
5	0	0	1	0	512	491	0	511	38	0
6	0	0	1	0	510	451	0	513	38	0
7	0	0	1	0	519	484	0	510	38	0
8	0	0	1	0	515	488	0	504	38	0
9	0	0	1	0	518	478	0	516	38	0
10	0	0	1	0	519	461	0	509	38	0
11	0	0	1	0	510	506	0	518	38	0
12	0	0	1	0	518	506	0	513	38	0
13	0	0	1	0	513	499	0	513	39	0
14	0	0	1	0	516	511	0	515	39	0
15	0	0	1	0	518	505	0	519	39	0
0	0	0	1	0	509	519	0	518	38	0
1	0	0	1	0	514	512	0	520	38	0
2	0	0	1	0	515	489	0	513	38	0
3	0	0	1	0	519	511	0	513	38	0
4	0	0	1	0	516	510	0	516	38	0
5	0	0	1	0	516	501	0	519	38	0
6	0	0	1	0	513	527	0	518	38	0
7	0	0	1	0	515	531	0	519	38	0
8	0	0	1	0	516	503	0	519	38	0
9	0	0	1	0	511	557	0	511	38	0
10	0	0	1	0	513	513	0	520	38	0
11	0	0	1	0	516	546	0	517	38	0
12	0	0	1	0	518	512	0	515	37	0
13	0	0	1	0	513	530	0	511	38	0
14	0	0	1	0	518	546	0	511	38	0
15	0	0	1	0	519	509	0	513	38	0
0	0	0	1	0	516	506	0	514	38	0
1	0	0	1	0	510	535	0	518	38	0
2	0	0	1	0	510	474	0	511	38	0
3	0	0	1	0	512	530	0	517	38	0
4	0	0	1	0	515	496	0	514	37	0
5	0	0	1	0	518	526	0	510	38	0
6	0	0	1	0	518	512	0	513	38	0
7	0	0	1	0	513	488	0	509	38	0
8	0	0	1	0	515	440	0	510	38	0
9	0	0	1	0	509	635	0	513	38	0
10	0	0	1	0	519	788	0	510	38	0
11	0	0	1	0	519	764	0	518	38	0
12	0	0	1	0	516	482	0	509	38	0
13	0	0	1	0	522	374	0	517	38	0
14	0	0	1	0	513	428	0	519	38	0
15	0	0	1	0	512	509	0	516	39	0
0	0	0	1	0	517	484	0	513	38	0
1	0	0	1	0	521	487	0	512	38	0
2	0	0	1	0	514	474	0	507	38	0
3	0	0	1	0	512	507	0	509	38	0
4	0	0	1	0	521	499	0	504	38	0
5	0	0	1	0	514	508	0	510	38	0
6	0	0	1	0	515	504	0	509	38	0
7	0	0	1	0	512	489	0	507	38	0
8	0	0	1	0	522	498	0	513	39	0
9	0	0	1	0	511	531	0	514	38	0
10	0	0	1	0	515	525	0	509	39	0
11	0	0	1	0	516	532	0	515	38	0
12	0	0	1	0	517	530	0	507	38	0
13	0	0	1	0	512	572	0	510	38	0
14	0	0	1	0	513	552	0	516	38	0
15	0	0	1	0	517	561	0	510	38	0
0	0	0	1	0	510	591	0	507	38	0
1	0	0	1	0	517	570	0	508	38	0
2	0	0	1	0	518	590	0	513	38	0
3	0	0	1	0	520	545	0	514	38	0
4	0	0	1	0	515	503	0	513	38	0
5	0	0	1	0	519	528	0	513	38	0
6	0	0	1	0	513	467	0	510	38	0
7	0	0	1	0	519	476	0	505	38	0
8	0	0	1	0	514	474	0	510	38	0
9	0	0	1	0	512	435	0	508	38	0
10	0	0	1	0	516	420	0	513	38	0
11	0	0	1	0	513	455	0	510	38	0
12	0	0	1	0	513	440	0	513	38	0
13	0	0	1	0	512	456	0	513	38	0
14	0	0	1	0	520	455	0	507	38	0
15	0	0	1	0	511	476	0	509	38	0
0	0	0	1	0	516	450	0	516	38	0
1	0	0	1	0	517	474	0	507	38	0
2	0	0	1	0	519	490	0	508	38	0
3	0	0	1	0	510	504	0	511	38	0
4	0	0	1	0	525	474	0	510	38	0
5	0	0	1	0	518	506	0	508	38	0
6	0	0	1	0	510	487	0	516	38	0
7	0	0	1	0	514	526	0	515	38	0
8	0	0	1	0	511	507	0	507	38	0
9	0	0	1	0	520	511	0	506	38	0
10	0	0	1	0	513	498	0	513	38	0
11	0	0	1	0	512	504	0	513	38	0
12	0	0	1	0	513	479	0	507	38	0
13	0	0	1	0	516	527	0	516	39	0
14	0	0	1	0	510	523	0	530	38	0
15	0	0	1	0	515	531	0	519	38	0
0	0	0	1	0	513	523	0	512	38	0
1	0	0	1	0	519	525	0	516	38	0
2	0	0	1	0	517	502	0	516	38	0
3	0	0	1	0	518	551	0	513	38	0
4	0	0	1	0	522	519	0	513	38	0
5	0	0	1	0	513	544	0	504	38	0
6	0	0	1	0	520	522	0	514	38	0
7	0	0	1	0	511	515	0	512	38	0
8	0	0	1	0	518	512	0	507	38	0
9	0	0	1	0	520	543	0	516	38	0
10	0	0	1	0	515	467	0	513	38	0
11	0	0	1	0	514	496	0	509	38	0
12	0	0	1	0	525	504	0	507	38	0
13	0	0	1	0	508	531	0	514	38	0
14	0	0	1	0	516	499	0	512	38	0
15	0	0	1	0	519	485	0	519	38	0
0	0	0	1	0	512	459	0	512	38	0
1	0	0	1	0	521	636	0	514	39	0
2	0	0	1	0	518	800	0	510	38	0
3	0	0	1	0	507	684	0	514	38	0
4	0	0	1	0	512	423	0	516	38	0
5	0	0	1	0	518	402	0	512	38	0
6	0	0	1	0	511	472	0	517	38	0
7	0	0	1	0	515	500	0	510	38	0
8	0	0	1	0	519	481	0	509	38	0
9	0	0	1	0	514	472	0	514	38	0
10	0	0	1	0	519	483	0	516	38	0
11	0	0	1	0	510	481	0	518	38	0
12	0	0	1	0	518	480	0	517	38	0
13	0	0	1	0	513	514	0	518	38	0
14	0	0	1	0	519	499	0	505	38	0
15	0	0	1	0	512	525	0	513	38	0
0	0	0	1	0	520	516	0	507	38	0
1	0	0	1	0	518	531	0	523	38	0
2	0	0	1	0	511	521	0	516	38	0
3	0	0	1	0	519	543	0	516	38	0
4	0	0	1	0	518	558	0	508	38	0
5	0	0	1	0	519	593	0	514	38	0
6	0	0	1	0	511	567	0	513	38	0
7	0	0	1	0	516	594	0	515	38	0
8	0	0	1	0	510	575	0	520	38	0
9	0	0	1	0	516	604	0	515	38	0
10	0	0	1	0	511	560	0	518	38	0
11	0	0	1	0	518	552	0	512	38	0
12	0	0	1	0	513	544	0	515	38	0
13	0	0	1	0	515	515	0	506	38	0
14	0	0	1	0	516	480	0	519	38	0
15	0	0	1	0	523	477	0	519	38	0
0	0	0	1	0	511	415	0	519	38	0
1	0	0	1	0	515	458	0	518	38	0
2	0	0	1	0	515	460	0	519	38	0
3	0	0	1	0	516	450	0	514	38	0
4	0	0	1	0	515	437	0	513	38	0
5	0	0	1	0	512	444	0	519	38	0
6	0	0	1	0	518	481	0	509	38	0
7	0	0	1	0	513	492	0	514	38	0
8	0	0	1	0	518	483	0	511	38	0
9	0	0	1	0	509	517	0	521	38	0
10	0	0	1	0	517	497	0	510	38	0
11	0	0	1	0	520	519	0	517	38	0
12	0	0	1	0	511	490	0	520	38	0
13	0	0	1	0	511	506	0	522	38	0
14	0	0	1	0	513	539	0	517	38	0
15	0	0	1	0	521	519	0	520	38	0
0	0	0	1	0	517	495	0	521	38	0
1	0	0	1	0	517	520	0	523	38	0
2	0	0	1	0	509	499	0	515	38	0
3	0	0	1	0	510	514	0	519	38	0
4	0	0	1	0	521	517	0	534	38	0
5	0	0	1	0	512	534	0	520	38	0
6	0	0	1	0	509	503	0	517	38	0
7	0	0	1	0	520	525	0	514	38	0
8	0	0	1	0	518	518	0	514	38	0
9	0	0	1	0	519	543	0	524	38	0
10	0	0	1	0	511	484	0	512	38	0
11	0	0	1	0	513	555	0	523	38	0
12	0	0	1	0	518	504	0	514	38	0
13	0	0	1	0	516	519	0	519	38	0
14	0	0	1	0	515	504	0	516	38	0
15	0	0	1	0	507	518	0	521	38	0
0	0	0	1	0	516	504	0	519	38	0
1	0	0	1	0	513	509	0	511	38	0
2	0	0	1	0	512	501	0	515	38	0
3	0	0	1	0	514	526	0	514	38	0
4	0	0	1	0	514	486	0	515	38	0
5	0	0	1	0	520	431	0	515	38	0
6	0	0	1	0	515	568	0	524	38	0
7	0	0	1	0	521	792	0	515	38	0
8	0	0	1	0	512	787	0	517	38	0
9	0	0	1	0	518	502	0	510	38	0
10	0	0	1	0	519	402	0	514	38	0
11	0	0	1	0	512	448	0	515	38	0
12	0	0	1	0	515	496	0	514	38	0
13	0	0	1	0	520	481	0	510	38	0
14	0	0	1	0	513	467	0	503	38	0
15	0	0	1	0	515	504	0	520	38	0
0	0	0	1	0	513	498	0	517	38	0
1	0	0	1	0	519	492	0	509	38	0
2	0	0	1	0	512	492	0	509	38	0
3	0	0	1	0	527	516	0	512	38	0
4	0	0	1	0	521	514	0	502	38	0
5	0	0	1	0	519	511	0	505	38	0
6	0	0	1	0	516	543	0	513	38	0
7	0	0	1	0	517	536	0	506	38	0
8	0	0	1	0	512	518	0	509	38	0
9	0	0	1	0	517	571	0	514	38	0
10	0	0	1	0	508	558	0	516	38	0
11	0	0	1	0	518	574	0	516	38	0
12	0	0	1	0	519	572	0	512	38	0
13	0	0	1	0	524	584	0	514	38	0
14	0	0	1	0	518	574	0	511	38	0
15	0	0	1	0	518	575	0	508	38	0
0	0	0	1	0	516	571	0	507	38	0
1	0	0	1	0	516	544	0	511	38	0
2	0	0	1	0	519	483	0	513	38	0
3	0	0	1	0	518	509	0	518	38	0
4	0	0	1	0	519	445	0	517	38	0
5	0	0	1	0	514	443	0	512	38	0
6	0	0	1	0	521	432	0	516	38	0
7	0	0	1	0	516	464	0	517	38	0
8	0	0	1	0	521	438	0	516	38	0
9	0	0	1	0	519	460	0	524	38	0
10	0	0	1	0	525	463	0	521	38	0
11	0	0	1	0	510	468	0	515	38	0
12	0	0	1	0	515	464	0	516	38	0
13	0	0	1	0	515	467	0	518	38	0
14	0	0	1	0	514	485	0	522	38	0
15	0	0	1	0	513	502	0	515	38	0
0	0	0	1	0	509	485	0	516	38	0
1	0	0	1	0	514	507	0	519	38	0
2	0	0	1	0	510	501	0	512	38	0
3	0	0	1	0	514	489	0	506	38	0
4	0	0	1	0	516	533	0	509	38	0
5	0	0	1	0	512	528	0	512	38	0
6	0	0	1	0	516	497	0	516	38	0
7	0	0	1	0	510	518	0	510	38	0
8	0	0	1	0	520	498	0	516	38	0
9	0	0	1	0	511	517	0	521	38	0
10	0	0	1	0	518	514	0	512	38	0
11	0	0	1	0	508	550	0	511	38	0
12	0	0	1	0	516	532	0	516	38	0
13	0	0	1	0	516	519	0	513	38	0
14	0	0	1	0	516	528	0	516	38	0
15	0	0	1	0	517	526	0	522	38	0
0	0	0	1	0	512	496	0	518	38	0
1	0	0	1	0	520	536	0	512	38	0
2	0	0	1	0	512	480	0	507	38	0
3	0	0	1	0	519	523	0	508	38	0
4	0	0	1	0	517	516	0	510	38	0
5	0	0	1	0	517	514	0	511	38	0
6	0	0	1	0	518	509	0	510	38	0
7	0	0	1	0	515	520	0	516	38	0
8	0	0	1	0	515	492	0	514	38	0
9	0	0	1	0	515	494	0	508	38	0
10	0	0	1	0	516	464	0	516	38	0
11	0	0	1	0	515	615	0	510	38	0
12	0	0	1	0	510	785	0	510	38	0
13	0	0	1	0	517	694	0	526	38	0
14	0	0	1	0	520	446	0	515	38	0
15	0	0	1	0	518	414	0	513	38	0
0	0	0	1	0	518	446	0	520	38	0
1	0	0	1	0	517	480	0	508	38	0
2	0	0	1	0	507	503	0	512	38	0
3	0	0	1	0	510	489	0	519	38	0
4	0	0	1	0	520	481	0	515	38	0
5	0	0	1	0	514	493	0	511	38	0
6	0	0	1	0	510	481	0	509	38	0
7	0	0	1	0	514	508	0	515	38	0
8	0	0	1	0	508	506	0	515	38	0
9	0	0	1	0	517	523	0	518	38	0
10	0	0	1	0	513	505	0	520	38	0
11	0	0	1	0	524	551	0	509	38	0
12	0	0	1	0	516	509	0	514	38	0
13	0	0	1	0	509	543	0	519	38	0
14	0	0	1	0	516	512	0	516	38	0
15	0	0	1	0	516	584	0	508	38	0
0	0	0	1	0	517	574	0	513	38	0
1	0	0	1	0	519	594	0	509	38	0
2	0	0	1	0	520	589	0	511	38	0
3	0	0	1	0	519	585	0	511	38	0
4	0	0	1	0	518	554	0	510	38	0
5	0	0	1	0	512	550	0	506	38	0
6	0	0	1	0	513	503	0	515	38	0
7	0	0	1	0	511	509	0	510	38	0
8	0	0	1	0	513	458	0	512	38	0
9	0	0	1	0	522	484	0	506	38	0
10	0	0	1	0	513	444	0	512	38	0
11	0	0	1	0	514	470	0	505	38	0
12	0	0	1	0	515	437	0	514	38	0
13	0	0	1	0	521	453	0	512	38	0
14	0	0	1	0	513	439	0	513	38	0
15	0	0	1	0	515	454	0	512	38	0
0	0	0	1	0	516	478	0	506	38	0
1	0	0	1	0	518	475	0	509	38	0
2	0	0	1	0	513	472	0	507	38	0
3	0	0	1	0	512	503	0	508	38	0
4	0	0	1	0	516	490	0	508	38	0
5	0	0	1	0	515	490	0	512	38	0
6	0	0	1	0	517	481	0	513	38	0
7	0	0	1	0	517	526	0	508	38	0
8	0	0	1	0	518	480	0	515	38	0
9	0	0	1	0	514	535	0	504	38	0
10	0	0	1	0	510	502	0	515	38	0
11	0	0	1	0	518	505	0	513	38	0
12	0	0	1	0	515	511	0	513	38	0
13	0	0	1	0	516	512	0	515	38	0
14	0	0	1	0	517	517	0	516	38	0
15	0	0	1	0	513	527	0	514	38	0
0	0	0	1	0	508	504	0	512	38	0
1	0	0	1	0	519	526	0	511	38	0
2	0	0	1	0	515	497	0	512	38	0
3	0	0	1	0	511	537	0	515	38	0
4	0	0	1	0	517	526	0	520	38	0
5	0	0	1	0	514	531	0	515	38	0
6	0	0	1	0	518	529	0	522	38	0
7	0	0	1	0	514	520	0	524	38	0
8	0	0	1	0	515	509	0	516	38	0
9	0	0	1	0	513	523	0	526	38	0
10	0	0	1	0	517	486	0	516	38	0
11	0	0	1	0	519	530	0	516	38	0
12	0	0	1	0	517	489	0	518	38	0
13	0	0	1	0	514	512	0	512	38	0
14	0	0	1	0	516	507	0	514	38	0
15	0	0	1	0	510	509	0	512	38	0
0	0	0	1	0	513	452	0	513	38	0
1	0	0	1	0	509	616	0	519	38	0
2	0	0	1	0	513	764	0	516	38	0
3	0	0	1	0	518	729	0	521	38	0
4	0	0	1	0	519	472	0	514	38	0
5	0	0	1	0	524	412	0	514	38	0
6	0	0	1	0	511	430	0	522	38	0
7	0	0	1	0	506	499	0	518	38	0
8	0	0	1	0	519	449	0	513	38	0
9	0	0	1	0	518	513	0	515	38	0
10	0	0	1	0	516	501	0	521	38	0
11	0	0	1	0	511	509	0	531	38	0
12	0	0	1	0	516	485	0	511	38	0
13	0	0	1	0	515	527	0	515	38	0
14	0	0	1	0	516	489	0	517	38	0
15	0	0	1	0	511	518	0	512	38	0
0	0	0	1	0	515	517	0	512	38	0
1	0	0	1	0	514	522	0	516	38	0
2	0	0	1	0	514	529	0	521	38	0
3	0	0	1	0	510	553	0	511	38	0
4	0	0	1	0	515	519	0	519	38	0
5	0	0	1	0	512	579	0	521	38	0
6	0	0	1	0	516	574	0	520	38	0
7	0	0	1	0	511	592	0	521	38	0
8	0	0	1	0	516	585	0	517	38	0
9	0	0	1	0	514	588	0	522	38	0
10	0	0	1	0	517	567	0	514	38	0
11	0	0	1	0	509	558	0	520	38	0
12	0	0	1	0	512	503	0	515	38	0
13	0	0	1	0	513	508	0	513	38	0
14	0	0	1	0	519	477	0	518	38	0
15	0	0	1	0	521	480	0	516	38	0
0	0	0	1	0	512	445	0	519	38	0
1	0	0	1	0	508	456	0	512	38	0
2	0	0	1	0	517	436	0	520	38	0
3	0	0	1	0	517	447	0	528	38	0
4	0	0	1	0	508	446	0	520	38	0
5	0	0	1	0	512	498	0	517	38	0
6	0	0	1	0	517	439	0	510	38	0
7	0	0	1	0	519	469	0	515	38	0
8	0	0	1	0	517	484	0	515	38	0
9	0	0	1	0	517	489	0	513	38	0
10	0	0	1	0	519	491	0	513	38	0
11	0	0	1	0	515	510	0	518	38	0
12	0	0	1	0	517	477	0	518	38	0
13	0	0	1	0	513	510	0	516	38	0
14	0	0	1	0	521	496	0	513	38	0
15	0	0	1	0	519	515	0	524	38	0
0	0	0	1	0	513	525	0	513	38	0
1	0	0	1	0	518	512	0	512	38	0
2	0	0	1	0	522	531	0	512	38	0
3	0	0	1	0	511	505	0	510	38	0
4	0	0	1	0	525	508	0	511	38	0
5	0	0	1	0	517	526	0	508	38	0
6	0	0	1	0	519	516	0	514	38	0
7	0	0	1	0	511	564	0	509	38	0
8	0	0	1	0	514	489	0	517	38	0
9	0	0	1	0	508	519	0	515	38	0
10	0	0	1	0	515	524	0	510	38	0
11	0	0	1	0	516	528	0	514	38	0
12	0	0	1	0	525	499	0	526	38	0
13	0	0	1	0	516	517	0	508	38	0
14	0	0	1	0	512	507	0	513	38	0
15	0	0	1	0	515	522	0	512	38	0
0	0	0	1	0	513	499	0	527	38	0
1	0	0	1	0	512	519	0	517	38	0
2	0	0	1	0	515	489	0	514	38	0
3	0	0	1	0	516	515	0	513	38	0
4	0	0	1	0	508	505	0	505	38	0
5	0	0	1	0	516	467	0	511	38	0
6	0	0	1	0	514	519	0	514	38	0
7	0	0	1	0	512	728	0	509	38	0
8	0	0	1	0	519	806	0	510	38	0
9	0	0	1	0	515	598	0	507	38	0
10	0	0	1	0	515	398	0	508	38	0
11	0	0	1	0	518	429	0	511	38	0
12	0	0	1	0	519	472	0	509	38	0
13	0	0	1	0	515	500	0	513	38	0
14	0	0	1	0	517	478	0	518	38	0
15	0	0	1	0	511	502	0	512	38	0
0	0	0	1	0	514	497	0	515	38	0
1	0	0	1	0	517	510	0	516	38	0
2	0	0	1	0	510	483	0	510	38	0
3	0	0	1	0	514	529	0	510	38	0
4	0	0	1	0	512	504	0	514	38	0
5	0	0	1	0	516	517	0	510	38	0
6	0	0	1	0	520	513	0	515	38	0
7	0	0	1	0	516	549	0	516	38	0
8	0	0	1	0	518	528	0	513	38	0
9	0	0	1	0	521	553	0	517	38	0
10	0	0	1	0	517	542	0	513	38	0
11	0	0	1	0	514	592	0	517	38	0
12	0	0	1	0	518	579	0	519	38	0
13	0	0	1	0	518	586	0	518	38	0
14	0	0	1	0	510	579	0	510	38	0
15	0	0	1	0	518	587	0	507	38	0
0	0	0	1	0	519	543	0	516	38	0
1	0	0	1	0	520	541	0	515	38	0
2	0	0	1	0	511	503	0	512	38	0
3	0	0	1	0	519	491	0	517	38	0
4	0	0	1	0	518	472	0	511	38	0
5	0	0	1	0	517	464	0	520	38	0
6	0	0	1	0	519	450	0	512	38	0
7	0	0	1	0	507	460	0	514	38	0
8	0	0	1	0	509	455	0	504	38	0
9	0	0	1	0	515	467	0	517	38	0
10	0	0	1	0	527	435	0	515	38	0
11	0	0	1	0	522	403	0	521	38	0
12	0	0	1	0	518	393	0	513	38	0
13	0	0	1	0	518	433	0	514	38	0
14	0	0	1	0	507	409	0	515	38	0
15	0	0	1	0	515	450	0	517	38	0
0	0	0	1	0	508	433	0	515	38	0
1	0	0	1	0	518	491	0	516	38	0
2	0	0	1	0	515	473	0	516	38	0
3	0	0	1	0	521	471	0	519	38	0
4	0	0	1	0	513	464	0	521	38	0
5	0	0	1	0	519	514	0	512	38	0
6	0	0	1	0	517	493	0	520	38	0
7	0	0	1	0	513	500	0	519	38	0
8	0	0	1	0	516	501	0	519	38	0
9	0	0	1	0	514	536	0	519	38	0
10	0	0	1	0	513	513	0	513	38	0
11	0	0	1	0	521	531	0	509	38	0
12	0	0	1	0	518	531	0	514	38	0
13	0	0	1	0	510	530	0	516	38	0
14	0	0	1	0	511	511	0	510	38	0
15	0	0	1	0	513	538	0	518	38	0
0	0	0	1	0	516	532	0	523	38	0
1	0	0	1	0	515	547	0	515	38	0
2	0	0	1	0	505	527	0	512	38	0
3	0	0	1	0	518	545	0	510	38	0
4	0	0	1	0	513	504	0	502	38	0
5	0	0	1	0	515	507	0	514	38	0
6	0	0	1	0	518	539	0	505	38	0
7	0	0	1	0	515	557	0	514	38	0
8	0	0	1	0	511	502	0	512	38	0
9	0	0	1	0	516	531	0	523	38	0
10	0	0	1	0	511	516	0	516	38	0
11	0	0	1	0	515	475	0	511	38	0
12	0	0	1	0	510	574	0	519	37	0
13	0	0	1	0	511	763	0	508	38	0
14	0	0	1	0	514	807	0	531	38	0
15	0	0	1	0	513	571	0	512	38	0
0	0	0	1	0	518	401	0	511	38	0
1	0	0	1	0	515	442	0	509	38	0
2	0	0	1	0	512	502	0	512	38	0
3	0	0	1	0	518	489	0	508	38	0
4	0	0	1	0	517	488	0	519	38	0
5	0	0	1	0	515	514	0	509	38	0
6	0	0	1	0	524	483	0	504	38	0
7	0	0	1	0	520	521	0	504	38	0
8	0	0	1	0	514	511	0	515	38	0
9	0	0	1	0	516	515	0	512	38	0
10	0	0	1	0	516	520	0	506	38	0
11	0	0	1	0	519	531	0	513	38	0
12	0	0	1	0	508	528	0	515	38	0
13	0	0	1	0	519	552	0	505	38	0
14	0	0	1	0	508	526	0	510	38	0
15	0	0	1	0	511	546	0	506	38	0
0	0	0	1	0	515	547	0	515	38	0
1	0	0	1	0	516	591	0	512	38	0
2	0	0	1	0	511	583	0	509	38	0
3	0	0	1	0	517	625	0	505	38	0
4	0	0	1	0	511	582	0	510	38	0
5	0	0	1	0	519	576	0	508	38	0
6	0	0	1	0	515	569	0	510	38	0
7	0	0	1	0	517	533	0	507	38	0
8	0	0	1	0	514	505	0	511	38	0
9	0	0	1	0	517	501	0	511	38	0
10	0	0	1	0	521	452	0	512	38	0
11	0	0	1	0	518	472	0	511	38	0
12	0	0	1	0	515	458	0	507	38	0
13	0	0	1	0	521	451	0	518	38	0
14	0	0	1	0	519	445	0	515	38	0
15	0	0	1	0	510	461	0	516	38	0
0	0	0	1	0	514	462	0	515	38	0
1	0	0	1	0	515	477	0	511	38	0
2	0	0	1	0	518	464	0	513	38	0
3	0	0	1	0	514	485	0	517	38	0
4	0	0	1	0	519	474	0	511	38	0
5	0	0	1	0	511	498	0	512	38	0
6	0	0	1	0	510	491	0	521	38	0
7	0	0	1	0	515	523	0	515	38	0
8	0	0	1	0	515	480	0	503	38	0
9	0	0	1	0	513	510	0	507	38	0
10	0	0	1	0	510	520	0	523	38	0
11	0	0	1	0	515	498	0	517	38	0
12	0	0	1	0	516	491	0	518	38	0
13	0	0	1	0	516	526	0	517	38	0
14	0	0	1	0	514	523	0	514	38	0
15	0	0	1	0	516	508	0	512	38	0
0	0	0	1	0	520	527	0	519	38	0
1	0	0	1	0	521	528	0	516	38	0
2	0	0	1	0	510	500	0	521	38	0
3	0	0	1	0	516	542	0	517	38	0
4	0	0	1	0	515	513	0	518	38	0
5	0	0	1	0	521	530	0	520	38	0
6	0	0	1	0	518	525	0	512	38	0
7	0	0	1	0	513	550	0	512	39	0
8	0	0	1	0	518	534	0	512	38	0
9	0	0	1	0	516	518	0	517	38	0
10	0	0	1	0	514	518	0	519	38	0
11	0	0	1	0	511	531	0	517	38	0
12	0	0	1	0	515	491	0	520	38	0
13	0	0	1	0	511	532	0	519	38	0
14	0	0	1	0	515	498	0	516	38	0
15	0	0	1	0	512	539	0	511	38	0
0	0	0	1	0	509	504	0	513	38	0
1	0	0	1	0	522	519	0	515	38	0
2	0	0	1	0	519	503	0	519	38	0
3	0	0	1	0	515	487	0	518	38	0
4	0	0	1	0	519	458	0	514	38	0
5	0	0	1	0	517	628	0	519	38	0
6	0	0	1	0	517	812	0	523	38	0
7	0	0	1	0	513	758	0	519	38	0
8	0	0	1	0	512	447	0	520	38	0
9	0	0	1	0	513	405	0	516	38	0
10	0	0	1	0	521	441	0	515	38	0
11	0	0	1	0	519	497	0	504	38	0
12	0	0	1	0	515	498	0	511	38	0
13	0	0	1	0	516	467	0	518	38	0
14	0	0	1	0	514	487	0	520	38	0
15	0	0	1	0	515	486	0	522	38	0
0	0	0	1	0	512	505	0	516	38	0
1	0	0	1	0	517	526	0	515	38	0
2	0	0	1	0	515	516	0	511	38	0
3	0	0	1	0	519	535	0	509	38	0
4	0	0	1	0	515	504	0	505	38	0
5	0	0	1	0	517	512	0	512	38	0
6	0	0	1	0	521	516	0	515	38	0
7	0	0	1	0	507	538	0	515	38	0
8	0	0	1	0	519	531	0	514	38	0
9	0	0	1	0	524	568	0	515	38	0
10	0	0	1	0	508	560	0	514	38	0
11	0	0	1	0	516	591	0	512	38	0
12	0	0	1	0	510	590	0	511	37	0
13	0	0	1	0	515	594	0	511	38	0
14	0	0	1	0	519	566	0	509	38	0
15	0	0	1	0	521	563	0	509	38	0
0	0	0	1	0	508	528	0	514	38	0
1	0	0	1	0	522	503	0	513	38	0
2	0	0	1	0	513	466	0	509	38	0
3	0	0	1	0	518	471	0	517	38	0
4	0	0	1	0	515	468	0	514	38	0
5	0	0	1	0	513	447	0	507	38	0
6	0	0	1	0	517	452	0	508	38	0
7	0	0	1	0	519	456	0	512	38	0
8	0	0	1	0	523	451	0	511	38	0
9	0	0	1	0	517	471	0	503	38	0
10	0	0	1	0	520	451	0	510	38	0
11	0	0	1	0	520	458	0	512	38	0
12	0	0	1	0	517	473	0	515	38	0
13	0	0	1	0	516	481	0	512	38	0
14	0	0	1	0	517	485	0	510	38	0
15	0	0	1	0	514	511	0	513	39	0
0	0	0	1	0	517	495	0	508	38	0
1	0	0	1	0	515	505	0	509	38	0
2	0	0	1	0	517	503	0	511	38	0
3	0	0	1	0	516	502	0	513	38	0
4	0	0	1	0	516	523	0	504	38	0
5	0	0	1	0	509	509	0	512	38	0
6	0	0	1	0	513	505	0	512	38	0
7	0	0	1	0	512	504	0	516	38	0
8	0	0	1	0	512	523	0	513	38	0
9	0	0	1	0	515	523	0	509	38	0
10	0	0	1	0	516	506	0	507	38	0
11	0	0	1	0	514	527	0	508	38	0
12	0	0	1	0	519	498	0	513	38	0
13	0	0	1	0	518	553	0	511	38	0
14	0	0	1	0	516	518	0	516	39	0
15	0	0	1	0	516	503	0	507	39	0
0	0	0	1	0	519	531	0	514	38	0
1	0	0	1	0	516	558	0	516	38	0
2	0	0	1	0	523	514	0	511	38	0
3	0	0	1	0	513	508	0	513	38	0
4	0	0	1	0	513	511	0	519	38	0
5	0	0	1	0	518	507	0	514	38	0
6	0	0	1	0	525	512	0	512	38	0
7	0	0	1	0	513	531	0	518	39	0
8	0	0	1	0	515	501	0	516	38	0
9	0	0	1	0	517	507	0	515	39	0
10	0	0	1	0	514	517	0	519	38	0
11	0	0	1	0	519	530	0	516	38	0
12	0	0	1	0	518	458	0	517	38	0
13	0	0	1	0	524	640	0	517	38	0
14	0	0	1	0	519	775	0	519	38	0
15	0	0	1	0	521	728	0	521	38	0
0	0	0	1	0	517	454	0	514	38	0
1	0	0	1	0	515	422	0	521	38	0
2	0	0	1	0	513	446	0	513	38	0
3	0	0	1	0	507	504	0	518	38	0
4	0	0	1	0	520	491	0	514	38	0
5	0	0	1	0	513	483	0	519	38	0
6	0	0	1	0	515	508	0	516	38	0
7	0	0	1	0	514	519	0	516	38	0
8	0	0	1	0	512	484	0	522	38	0
9	0	0	1	0	515	517	0	516	38	0
10	0	0	1	0	519	493	0	516	38	0
11	0	0	1	0	514	518	0	511	38	0
12	0	0	1	0	519	503	0	520	41	0
13	0	0	1	0	520	520	0	522	38	0
14	0	0	1	0	516	527	0	522	38	0
15	0	0	1	0	514	544	0	511	38	0
0	0	0	1	0	513	547	0	517	38	0
1	0	0	1	0	505	561	0	514	39	0
2	0	0	1	0	512	566	0	513	39	0
3	0	0	1	0	510	576	0	516	39	0
4	0	0	1	0	516	577	0	523	38	0
5	0	0	1	0	512	584	0	513	38	0
6	0	0	1	0	512	568	0	517	38	0
7	0	0	1	0	520	582	0	511	38	0
8	0	0	1	0	512	509	0	513	38	0
9	0	0	1	0	515	514	0	518	38	0
10	0	0	1	0	519	492	0	519	38	0
11	0	0	1	0	511	433	0	515	38	0
12	0	0	1	0	517	467	0	516	38	0
13	0	0	1	0	515	435	0	516	38	0
14	0	0	1	0	519	448	0	512	38	0
15	0	0	1	0	514	439	0	512	38	0
0	0	0	1	0	520	434	0	514	38	0
1	0	0	1	0	513	465	0	514	38	0
2	0	0	1	0	518	444	0	510	38	0
3	0	0	1	0	510	445	0	516	38	0
4	0	0	1	0	515	455	0	513	38	0
5	0	0	1	0	517	484	0	518	38	0
6	0	0	1	0	520	486	0	511	38	0
7	0	0	1	0	516	490	0	519	38	0
8	0	0	1	0	517	478	0	511	38	0
9	0	0	1	0	509	500	0	513	38	0
10	0	0	1	0	514	512	0	517	38	0
11	0	0	1	0	515	510	0	515	38	0
12	0	0	1	0	517	487	0	516	38	0
13	0	0	1	0	514	540	0	515	38	0
14	0	0	1	0	512	529	0	516	38	0
15	0	0	1	0	520	513	0	515	38	0
0	0	0	1	0	518	492	0	515	38	0
1	0	0	1	0	516	514	0	514	38	0
2	0	0	1	0	513	506	0	514	38	0
3	0	0	1	0	514	514	0	508	38	0
4	0	0	1	0	522	519	0	510	38	0
5	0	0	1	0	513	536	0	517	38	0
6	0	0	1	0	517	522	0	517	38	0
7	0	0	1	0	517	540	0	505	38	0
8	0	0	1	0	520	488	0	509	38	0
9	0	0	1	0	521	507	0	509	38	0
10	0	0	1	0	517	516	0	509	38	0
11	0	0	1	0	520	516	0	507	38	0
12	0	0	1	0	512	534	0	514	38	0
13	0	0	1	0	514	515	0	513	38	0
14	0	0	1	0	518	526	0	516	38	0
15	0	0	1	0	518	503	0	514	38	0
0	0	0	1	0	511	483	0	514	38	0
1	0	0	1	0	516	499	0	512	38	0
2	0	0	1	0	517	664	0	512	38	0
3	0	0	1	0	513	813	0	513	38	0
4	0	0	1	0	513	661	0	508	38	0
5	0	0	1	0	516	448	0	515	38	0
6	0	0	1	0	517	437	0	508	38	0
7	0	0	1	0	522	500	0	510	38	0
8	0	0	1	0	514	502	0	513	38	0
9	0	0	1	0	513	483	0	507	38	0
10	0	0	1	0	512	478	0	512	38	0
11	0	0	1	0	517	519	0	511	38	0
12	0	0	1	0	509	487	0	511	38	0
13	0	0	1	0	521	513	0	510	38	0
14	0	0	1	0	515	538	0	510	38	0
15	0	0	1	0	517	518	0	516	38	0
0	0	0	1	0	516	515	0	507	38	0
1	0	0	1	0	514	534	0	505	38	0
2	0	0	1	0	518	513	0	511	38	0
3	0	0	1	0	519	560	0	508	38	0
4	0	0	1	0	516	538	0	514	38	0
5	0	0	1	0	518	532	0	506	38	0
6	0	0	1	0	515	572	0	515	38	0
7	0	0	1	0	518	600	0	526	38	0
8	0	0	1	0	514	570	0	513	38	0
9	0	0	1	0	519	596	0	506	38	0
10	0	0	1	0	519	588	0	527	38	0
11	0	0	1	0	522	593	0	513	38	0
12	0	0	1	0	512	544	0	512	38	0
13	0	0	1	0	512	524	0	518	38	0
14	0	0	1	0	513	518	0	514	38	0
15	0	0	1	0	511	475	0	511	38	0
0	0	0	1	0	518	465	0	516	38	0
1	0	0	1	0	524	486	0	508	38	0
2	0	0	1	0	514	452	0	508	38	0
3	0	0	1	0	516	469	0	507	38	0
4	0	0	1	0	513	455	0	518	38	0
5	0	0	1	0	512	466	0	515	38	0
6	0	0	1	0	513	463	0	515	38	0
7	0	0	1	0	517	480	0	515	38	0
8	0	0	1	0	513	486	0	512	38	0
9	0	0	1	0	516	485	0	518	38	0
10	0	0	1	0	520	510	0	518	38	0
11	0	0	1	0	520	494	0	515	38	0
12	0	0	1	0	517	501	0	518	38	0
13	0	0	1	0	514	523	0	513	38	0
14	0	0	1	0	511	483	0	513	38	0
15	0	0	1	0	516	522	0	511	38	0
0	0	0	1	0	516	523	0	511	38	0
1	0	0	1	0	515	510	0	512	38	0
2	0	0	1	0	516	510	0	516	38	0
3	0	0	1	0	516	529	0	518	38	0
4	0	0	1	0	514	517	0	518	38	0
5	0	0	1	0	512	487	0	519	38	0
6	0	0	1	0	520	532	0	522	38	0
7	0	0	1	0	517	517	0	517	38	0
8	0	0	1	0	508	539	0	518	38	0
9	0	0	1	0	515	531	0	506	38	0
10	0	0	1	0	515	536	0	516	38	0
11	0	0	1	0	514	523	0	516	38	0
12	0	0	1	0	509	512	0	515	38	0
13	0	0	1	0	517	517	0	515	38	0
14	0	0	1	0	519	523	0	517	38	0
15	0	0	1	0	519	511	0	516	38	0
0	0	0	1	0	518	493	0	521	38	0
1	0	0	1	0	516	505	0	522	38	0
2	0	0	1	0	524	506	0	520	38	0
3	0	0	1	0	516	501	0	515	38	0
4	0	0	1	0	515	515	0	513	38	0
5	0	0	1	0	511	466	0	514	38	0
6	0	0	1	0	522	568	0	517	38	0
7	0	0	1	0	516	743	0	515	38	0
8	0	0	1	0	512	813	0	515	38	0
9	0	0	1	0	515	577	0	513	38	0
10	0	0	1	0	518	412	0	512	38	0
11	0	0	1	0	518	434	0	514	38	0
12	0	0	1	0	512	481	0	515	38	0
13	0	0	1	0	513	488	0	511	38	0
14	0	0	1	0	514	476	0	511	38	0
15	0	0	1	0	518	487	0	509	38	0
0	0	0	1	0	510	509	0	520	38	0
1	0	0	1	0	506	500	0	517	38	0
2	0	0	1	0	517	519	0	511	38	0
3	0	0	1	0	513	503	0	511	38	0
4	0	0	1	0	520	526	0	508	38	0
5	0	0	1	0	517	520	0	512	38	0
6	0	0	1	0	525	524	0	510	38	0
7	0	0	1	0	517	536	0	511	38	0
8	0	0	1	0	516	516	0	512	38	0
9	0	0	1	0	518	551	0	513	38	0
10	0	0	1	0	509	566	0	508	38	0
11	0	0	1	0	519	573	0	510	38	0
12	0	0	1	0	518	577	0	505	38	0
13	0	0	1	0	522	584	0	511	38	0
14	0	0	1	0	524	584	0	512	38	0
15	0	0	1	0	514	588	0	508	38	0
0	0	0	1	0	510	584	0	509	38	0
1	0	0	1	0	514	517	0	515	38	0
2	0	0	1	0	521	511	0	520	38	0
3	0	0	1	0	516	506	0	517	38	0
4	0	0	1	0	518	466	0	514	38	0
5	0	0	1	0	517	463	0	518	38	0
6	0	0	1	0	511	451	0	520	38	0
7	0	0	1	0	516	462	0	513	38	0
8	0	0	1	0	517	447	0	519	38	0
9	0	0	1	0	514	450	0	516	38	0
10	0	0	1	0	519	465	0	512	38	0
11	0	0	1	0	511	485	0	511	38	0
12	0	0	1	0	509	479	0	528	38	0
13	0	0	1	0	514	487	0	513	38	0
14	0	0	1	0	513	495	0	514	38	0
15	0	0	1	0	514	469	0	514	38	0
0	0	0	1	0	513	492	0	513	38	0
1	0	0	1	0	515	488	0	515	38	0
2	0	0	1	0	516	517	0	508	38	0
3	0	0	1	0	522	534	0	513	38	0
4	0	0	1	0	517	510	0	515	38	0
5	0	0	1	0	513	509	0	514	38	0
6	0	0	1	0	519	500	0	507	38	0
7	0	0	1	0	515	504	0	513	38	0
8	0	0	1	0	523	519	0	515	38	0
9	0	0	1	0	511	516	0	510	38	0
10	0	0	1	0	516	529	0	513	38	0
11	0	0	1	0	515	531	0	512	38	0
12	0	0	1	0	515	522	0	520	38	0
13	0	0	1	0	520	516	0	510	38	0
14	0	0	1	0	516	517	0	508	38	0
15	0	0	1	0	517	537	0	505	38	0
0	0	0	1	0	515	524	0	505	38	0
1	0	0	1	0	521	526	0	515	38	0
2	0	0	1	0	510	550	0	516	38	0
3	0	0	1	0	517	495	0	509	38	0
4	0	0	1	0	512	509	0	511	38	0
5	0	0	1	0	517	517	0	508	38	0
6	0	0	1	0	514	509	0	508	38	0
7	0	0	1	0	515	516	0	506	38	0
8	0	0	1	0	518	532	0	506	38	0
9	0	0	1	0	519	500	0	508	38	0
10	0	0	1	0	518	529	0	512	38	0
11	0	0	1	0	514	503	0	518	38	0
12	0	0	1	0	517	428	0	517	38	0
13	0	0	1	0	512	598	0	517	38	0
14	0	0	1	0	518	773	0	514	38	0
15	0	0	1	0	514	784	0	517	38	0
0	0	0	1	0	523	496	0	520	38	0
1	0	0	1	0	514	393	0	518	38	0
2	0	0	1	0	513	449	0	519	38	0
3	0	0	1	0	525	513	0	510	38	0
4	0	0	1	0	512	488	0	511	38	0
5	0	0	1	0	513	497	0	516	38	0
6	0	0	1	0	516	507	0	516	38	0
7	0	0	1	0	511	496	0	514	38	0
8	0	0	1	0	516	488	0	517	38	0
9	0	0	1	0	515	491	0	513	38	0
10	0	0	1	0	512	508	0	519	38	0
11	0	0	1	0	519	519	0	506	38	0
12	0	0	1	0	518	536	0	516	38	0
13	0	0	1	0	511	552	0	516	38	0
14	0	0	1	0	515	504	0	507	38	0
15	0	0	1	0	519	562	0	512	38	0
0	0	0	1	0	513	568	0	509	38	0
1	0	0	1	0	515	549	0	515	38	0
2	0	0	1	0	513	557	0	514	38	0
3	0	0	1	0	516	588	0	518	38	0
4	0	0	1	0	515	601	0	513	38	0
5	0	0	1	0	514	587	0	511	38	0
6	0	0	1	0	513	572	0	509	38	0
7	0	0	1	0	510	539	0	514	38	0
8	0	0	1	0	504	547	0	513	38	0
9	0	0	1	0	517	481	0	515	38	0
10	0	0	1	0	517	490	0	515	38	0
11	0	0	1	0	517	451	0	514	38	0
12	0	0	1	0	513	480	0	514	38	0
13	0	0	1	0	519	467	0	515	38	0
14	0	0	1	0	518	455	0	513	38	0
15	0	0	1	0	514	463	0	510	38	0
0	0	0	1	0	516	447	0	511	38	0
1	0	0	1	0	514	447	0	520	38	0
2	0	0	1	0	514	469	0	513	38	0
3	0	0	1	0	514	489	0	518	38	0
4	0	0	1	0	519	477	0	513	38	0
5	0	0	1	0	515	471	0	519	38	0
6	0	0	1	0	512	495	0	517	38	0
7	0	0	1	0	519	489	0	510	38	0
8	0	0	1	0	515	493	0	512	38	0
9	0	0	1	0	511	519	0	516	38	0
10	0	0	1	0	523	517	0	512	38	0
11	0	0	1	0	519	488	0	512	38	0
12	0	0	1	0	508	504	0	516	38	0
13	0	0	1	0	519	525	0	512	38	0
14	0	0	1	0	511	496	0	510	38	0
15	0	0	1	0	514	517	0	512	38	0
0	0	0	1	0	524	523	0	514	38	0
1	0	0	1	0	524	532	0	516	38	0
2	0	0	1	0	514	511	0	516	38	0
3	0	0	1	0	515	536	0	519	38	0
4	0	0	1	0	519	529	0	530	38	0
5	0	0	1	0	519	531	0	511	38	0
6	0	0	1	0	521	503	0	512	38	0
7	0	0	1	0	508	509	0	507	38	0
8	0	0	1	0	510	542	0	509	38	0
9	0	0	1	0	515	558	0	515	38	0
10	0	0	1	0	515	551	0	508	38	0
11	0	0	1	0	516	506	0	516	38	0
12	0	0	1	0	519	523	0	511	38	0
13	0	0	1	0	518	493	0	511	38	0
14	0	0	1	0	514	515	0	515	38	0
15	0	0	1	0	520	503	0	509	38	0
0	0	0	1	0	510	555	0	517	38	0
1	0	0	1	0	514	499	0	517	38	0
2	0	0	1	0	514	527	0	510	38	0
3	0	0	1	0	515	518	0	515	38	0
4	0	0	1	0	520	446	0	512	38	0
5	0	0	1	0	515	549	0	508	37	0
6	0	0	1	0	513	680	0	511	38	0
7	0	0	1	0	517	796	0	511	38	0
8	0	0	1	0	518	626	0	512	38	0
9	0	0	1	0	513	390	0	504	38	0
10	0	0	1	0	508	446	0	512	38	0
11	0	0	1	0	513	507	0	512	38	0
12	0	0	1	0	504	512	0	507	38	0
13	0	0	1	0	517	492	0	516	38	0
14	0	0	1	0	520	489	0	513	38	0
15	0	0	1	0	517	482	0	511	38	0
0	0	0	1	0	519	488	0	514	38	0
1	0	0	1	0	518	492	0	512	38	0
2	0	0	1	0	513	522	0	514	38	0
3	0	0	1	0	519	528	0	518	38	0
4	0	0	1	0	523	522	0	516	38	0
5	0	0	1	0	517	500	0	510	38	0
6	0	0	1	0	522	503	0	516	38	0
7	0	0	1	0	518	543	0	504	38	0
8	0	0	1	0	519	536	0	506	38	0
9	0	0	1	0	515	579	0	513	38	0
10	0	0	1	0	512	576	0	514	38	0
11	0	0	1	0	518	562	0	515	38	0
12	0	0	1	0	514	574	0	508	38	0
13	0	0	1	0	515	602	0	516	38	0
14	0	0	1	0	509	555	0	516	38	0
15	0	0	1	0	516	566	0	513	38	0
0	0	0	1	0	516	579	0	511	38	0
1	0	0	1	0	507	527	0	508	38	0
2	0	0	1	0	512	483	0	514	38	0
3	0	0	1	0	514	487	0	509	38	0
4	0	0	1	0	517	453	0	516	38	0
5	0	0	1	0	519	441	0	515	38	0
6	0	0	1	0	513	441	0	512	38	0
7	0	0	1	0	522	448	0	512	38	0
8	0	0	1	0	519	454	0	510	38	0
9	0	0	1	0	517	468	0	517	38	0
10	0	0	1	0	513	457	0	512	38	0
11	0	0	1	0	514	476	0	513	38	0
12	0	0	1	0	517	515	0	504	38	0
13	0	0	1	0	513	466	0	512	38	0
14	0	0	1	0	517	489	0	509	38	0
15	0	0	1	0	516	482	0	505	38	0
0	0	0	1	0	518	505	0	508	38	0
1	0	0	1	0	514	481	0	510	38	0
2	0	0	1	0	510	505	0	510	38	0
3	0	0	1	0	516	479	0	512	38	0
4	0	0	1	0	513	536	0	515	38	0
5	0	0	1	0	513	499	0	513	38	0
6	0	0	1	0	512	518	0	513	38	0
7	0	0	1	0	514	517	0	508	38	0
8	0	0	1	0	512	511	0	514	38	0
9	0	0	1	0	519	523	0	519	38	0
10	0	0	1	0	514	535	0	524	38	0
11	0	0	1	0	513	499	0	519	38	0
12	0	0	1	0	515	512	0	518	38	0
13	0	0	1	0	516	527	0	515	38	0
14	0	0	1	0	516	529	0	518	38	0
15	0	0	1	0	519	565	0	514	38	0
0	0	0	1	0	517	537	0	516	38	0
1	0	0	1	0	510	500	0	519	38	0
2	0	0	1	0	514	572	0	522	38	0
3	0	0	1	0	516	500	0	519	38	0
4	0	0	1	0	515	496	0	521	38	0
5	0	0	1	0	518	499	0	510	38	0
6	0	0	1	0	513	514	0	516	38	0
7	0	0	1	0	515	544	0	520	38	0
8	0	0	1	0	518	495	0	519	38	0
9	0	0	1	0	520	484	0	516	38	0
10	0	0	1	0	517	533	0	515	38	0
11	0	0	1	0	518	666	0	519	38	0
12	0	0	1	0	515	824	0	514	38	0
13	0	0	1	0	511	624	0	511	38	0
14	0	0	1	0	511	401	0	507	38	0
15	0	0	1	0	515	452	0	516	38	0
0	0	0	1	0	511	472	0	513	38	0
1	0	0	1	0	515	485	0	514	38	0
2	0	0	1	0	520	491	0	519	38	0
3	0	0	1	0	510	498	0	511	38	0
4	0	0	1	0	517	484	0	516	38	0
5	0	0	1	0	514	486	0	520	38	0
6	0	0	1	0	522	507	0	511	38	0
7	0	0	1	0	514	526	0	521	38	0
8	0	0	1	0	516	536	0	519	38	0
9	0	0	1	0	517	495	0	508	38	0
10	0	0	1	0	518	500	0	525	38	0
11	0	0	1	0	525	508	0	520	38	0
12	0	0	1	0	519	536	0	515	38	0
13	0	0	1	0	521	539	0	518	38	0
14	0	0	1	0	520	552	0	517	38	0
15	0	0	1	0	518	552	0	517	38	0
0	0	0	1	0	516	602	0	515	38	0
1	0	0	1	0	516	598	0	517	38	0
2	0	0	1	0	518	563	0	520	38	0
3	0	0	1	0	520	569	0	519	38	0
4	0	0	1	0	514	579	0	515	38	0
5	0	0	1	0	516	526	0	521	38	0
6	0	0	1	0	523	521	0	518	38	0
7	0	0	1	0	521	482	0	519	38	0
8	0	0	1	0	510	490	0	523	38	0
9	0	0	1	0	519	463	0	509	38	0
10	0	0	1	0	507	479	0	513	38	0
11	0	0	1	0	515	423	0	520	38	0
12	0	0	1	0	514	475	0	516	38	0
13	0	0	1	0	515	429	0	520	38	0
14	0	0	1	0	510	448	0	511	38	0
15	0	0	1	0	512	461	0	518	38	0
0	0	0	1	0	519	478	0	518	38	0
1	0	0	1	0	512	464	0	517	38	0
2	0	0	1	0	518	512	0	513	38	0
3	0	0	1	0	519	486	0	521	38	0
4	0	0	1	0	512	488	0	524	38	0
5	0	0	1	0	518	497	0	514	38	0
6	0	0	1	0	516	500	0	505	38	0
7	0	0	1	0	514	511	0	516	38	0
8	0	0	1	0	517	520	0	517	38	0
9	0	0	1	0	512	491	0	528	38	0
10	0	0	1	0	515	534	0	518	38	0
11	0	0	1	0	515	511	0	518	38	0
12	0	0	1	0	513	516	0	515	38	0
13	0	0	1	0	514	507	0	523	38	0
14	0	0	1	0	505	521	0	512	38	0
15	0	0	1	0	516	510	0	516	38	0
0	0	0	1	0	512	561	0	517	38	0
1	0	0	1	0	517	522	0	517	38	0
2	0	0	1	0	515	503	0	513	38	0
3	0	0	1	0	514	515	0	517	38	0
4	0	0	1	0	520	541	0	515	38	0
5	0	0	1	0	516	514	0	514	38	0
6	0	0	1	0	520	513	0	515	38	0
7	0	0	1	0	507	504	0	510	38	0
8	0	0	1	0	519	521	0	514	38	0
9	0	0	1	0	514	521	0	503	38	0
10	0	0	1	0	516	524	0	518	38	0
11	0	0	1	0	517	507	0	513	38	0
12	0	0	1	0	518	534	0	510	38	0
13	0	0	1	0	524	501	0	519	38	0
14	0	0	1	0	524	505	0	507	38	0
15	0	0	1	0	513	455	0	514	38	0
0	0	0	1	0	518	573	0	518	38	0
1	0	0	1	0	516	722	0	511	38	0
2	0	0	1	0	517	814	0	515	38	0
3	0	0	1	0	509	536	0	516	38	0
4	0	0	1	0	515	386	0	511	38	0
5	0	0	1	0	511	421	0	514	38	0
6	0	0	1	0	505	484	0	509	38	0
7	0	0	1	0	524	472	0	517	38	0
8	0	0	1	0	516	482	0	516	38	0
9	0	0	1	0	510	475	0	512	38	0
10	0	0	1	0	514	501	0	513	38	0
11	0	0	1	0	513	501	0	511	38	0
12	0	0	1	0	522	506	0	509	38	0
13	0	0	1	0	514	521	0	508	38	0
14	0	0	1	0	508	517	0	512	38	0
15	0	0	1	0	508	500	0	512	38	0
0	0	0	1	0	516	525	0	508	38	0
1	0	0	1	0	517	530	0	512	38	0
2	0	0	1	0	519	530	0	511	38	0
3	0	0	1	0	515	549	0	510	38	0
4	0	0	1	0	520	559	0	505	38	0
5	0	0	1	0	527	554	0	511	38	0
6	0	0	1	0	516	588	0	509	38	0
7	0	0	1	0	515	584	0	517	38	0
8	0	0	1	0	517	592	0	509	38	0
9	0	0	1	0	519	587	0	512	38	0
10	0	0	1	0	510	571	0	510	38	0
11	0	0	1	0	514	523	0	515	38	0
12	0	0	1	0	520	500	0	520	38	0
13	0	0	1	0	511	454	0	519	38	0
14	0	0	1	0	519	484	0	513	38	0
15	0	0	1	0	519	439	0	509	38	0
0	0	0	1	0	521	463	0	510	38	0
1	0	0	1	0	523	448	0	512	38	0
2	0	0	1	0	510	464	0	511	38	0
3	0	0	1	0	513	441	0	505	38	0
4	0	0	1	0	516	499	0	513	38	0
5	0	0	1	0	522	457	0	510	38	0
6	0	0	1	0	515	472	0	505	38	0
7	0	0	1	0	517	446	0	521	38	0
8	0	0	1	0	518	505	0	508	38	0
9	0	0	1	0	518	468	0	504	38	0
10	0	0	1	0	513	524	0	510	38	0
11	0	0	1	0	514	485	0	505	38	0
12	0	0	1	0	510	509	0	512	38	0
13	0	0	1	0	512	495	0	504	38	0
14	0	0	1	0	510	519	0	510	38	0
15	0	0	1	0	518	507	0	514	38	0
0	0	0	1	0	511	511	0	508	38	0
1	0	0	1	0	513	548	0	507	38	0
2	0	0	1	0	508	518	0	509	38	0
3	0	0	1	0	514	491	0	508	38	0
4	0	0	1	0	521	517	0	505	38	0
5	0	0	1	0	510	532	0	505	38	0
6	0	0	1	0	514	527	0	509	38	0
7	0	0	1	0	516	534	0	513	38	0
8	0	0	1	0	520	524	0	507	38	0
9	0	0	1	0	519	547	0	510	38	0
10	0	0	1	0	519	549	0	512	38	0
11	0	0	1	0	514	496	0	516	38	0
12	0	0	1	0	513	540	0	516	38	0
13	0	0	1	0	508	501	0	518	38	0
14	0	0	1	0	512	476	0	518	38	0
15	0	0	1	0	514	508	0	517	38	0
0	0	0	1	0	514	560	0	512	38	0
1	0	0	1	0	509	480	0	512	38	0
2	0	0	1	0	518	525	0	519	38	0
3	0	0	1	0	514	488	0	518	38	0
4	0	0	1	0	514	488	0	519	38	0
5	0	0	1	0	514	493	0	512	38	0
6	0	0	1	0	523	628	0	510	38	0
7	0	0	1	0	512	817	0	512	38	0
8	0	0	1	0	525	734	0	511	38	0
9	0	0	1	0	513	423	0	516	38	0
10	0	0	1	0	515	406	0	515	38	0
11	0	0	1	0	517	427	0	516	38	0
12	0	0	1	0	507	497	0	512	38	0
13	0	0	1	0	520	471	0	507	38	0
14	0	0	1	0	517	487	0	513	38	0
15	0	0	1	0	520	476	0	518	38	0
0	0	0	1	0	522	508	0	516	38	0
1	0	0	1	0	513	480	0	514	38	0
2	0	0	1	0	516	499	0	519	38	0
3	0	0	1	0	519	508	0	515	38	0
4	0	0	1	0	512	508	0	520	38	0
5	0	0	1	0	508	515	0	518	38	0
6	0	0	1	0	513	523	0	511	38	0
7	0	0	1	0	519	528	0	512	38	0
8	0	0	1	0	511	550	0	518	38	0
9	0	0	1	0	512	542	0	514	38	0
10	0	0	1	0	519	579	0	505	38	0
11	0	0	1	0	512	566	0	508	38	0
12	0	0	1	0	518	580	0	517	38	0
13	0	0	1	0	509	572	0	518	38	0
14	0	0	1	0	519	601	0	512	38	0
15	0	0	1	0	517	574	0	515	38	0
0	0	0	1	0	513	552	0	503	38	0
1	0	0	1	0	511	522	0	510	38	0
2	0	0	1	0	517	498	0	526	38	0
3	0	0	1	0	516	465	0	515	38	0
4	0	0	1	0	513	472	0	508	38	0
5	0	0	1	0	515	432	0	511	38	0
6	0	0	1	0	516	441	0	509	38	0
7	0	0	1	0	510	435	0	511	38	0
8	0	0	1	0	519	463	0	512	38	0
9	0	0	1	0	523	452	0	516	38	0
10	0	0	1	0	516	470	0	515	38	0
11	0	0	1	0	517	442	0	508	38	0
12	0	0	1	0	513	467	0	511	38	0
13	0	0	1	0	516	451	0	509	38	0
14	0	0	1	0	519	496	0	511	38	0
15	0	0	1	0	515	488	0	512	38	0
0	0	0	1	0	511	495	0	511	38	0
1	0	0	1	0	509	504	0	508	38	0
2	0	0	1	0	518	519	0	510	38	0
3	0	0	1	0	517	493	0	516	38	0
4	0	0	1	0	514	502	0	517	38	0
5	0	0	1	0	511	500	0	519	38	0
6	0	0	1	0	519	518	0	516	38	0
7	0	0	1	0	513	506	0	521	38	0
8	0	0	1	0	514	527	0	515	38	0
9	0	0	1	0	518	517	0	517	39	0
10	0	0	1	0	514	508	0	519	39	0
11	0	0	1	0	516	528	0	517	39	0
12	0	0	1	0	519	541	0	518	39	0
13	0	0	1	0	514	527	0	522	39	0
14	0	0	1	0	518	519	0	517	38	0
15	0	0	1	0	518	523	0	523	38	0
0	0	0	1	0	505	540	0	511	38	0
1	0	0	1	0	522	519	0	517	38	0
2	0	0	1	0	510	528	0	510	38	0
3	0	0	1	0	516	497	0	517	38	0
4	0	0	1	0	511	516	0	518	38	0
5	0	0	1	0	516	482	0	519	38	0
6	0	0	1	0	514	507	0	522	38	0
7	0	0	1	0	525	494	0	518	38	0
8	0	0	1	0	522	513	0	513	38	0
9	0	0	1	0	514	500	0	513	38	0
10	0	0	1	0	515	523	0	520	38	0
11	0	0	1	0	520	470	0	517	39	0
12	0	0	1	0	515	515	0	518	39	0
13	0	0	1	0	517	643	0	519	39	0
14	0	0	1	0	519	812	0	525	38	0
15	0	0	1	0	518	638	0	519	38	0
0	0	0	1	0	519	420	0	516	38	0
1	0	0	1	0	518	432	0	510	39	0
2	0	0	1	0	507	482	0	517	39	0
3	0	0	1	0	508	496	0	521	39	0
4	0	0	1	0	521	500	0	521	39	0
5	0	0	1	0	513	464	0	515	39	0
6	0	0	1	0	519	531	0	519	38	0
7	0	0	1	0	521	485	0	516	38	0
8	0	0	1	0	519	514	0	519	38	0
9	0	0	1	0	516	487	0	511	38	0
10	0	0	1	0	514	519	0	511	38	0
11	0	0	1	0	514	509	0	512	38	0
12	0	0	1	0	517	518	0	509	38	0
13	0	0	1	0	514	525	0	512	38	0
14	0	0	1	0	513	532	0	513	39	0
15	0	0	1	0	515	520	0	514	39	0
0	0	0	1	0	518	582	0	512	38	0
1	0	0	1	0	517	551	0	509	38	0
2	0	0	1	0	517	591	0	509	38	0
3	0	0	1	0	514	572	0	515	39	0
4	0	0	1	0	515	566	0	510	38	0
5	0	0	1	0	509	579	0	508	38	0
6	0	0	1	0	513	556	0	525	38	0
7	0	0	1	0	523	543	0	507	38	0
8	0	0	1	0	510	546	0	509	38	0
9	0	0	1	0	519	480	0	512	39	0
10	0	0	1	0	515	484	0	507	39	0
11	0	0	1	0	520	465	0	511	38	0
12	0	0	1	0	514	455	0	523	38	0
13	0	0	1	0	508	438	0	510	39	0
14	0	0	1	0	508	456	0	510	39	0
15	0	0	1	0	511	444	0	512	39	0
0	0	0	1	0	515	458	0	514	39	0
1	0	0	1	0	511	443	0	513	39	0
2	0	0	1	0	517	484	0	514	39	0
3	0	0	1	0	516	474	0	511	38	0
4	0	0	1	0	516	463	0	515	38	0
5	0	0	1	0	508	467	0	512	38	0
6	0	0	1	0	521	498	0	508	38	0
7	0	0	1	0	516	461	0	506	38	0
8	0	0	1	0	517	522	0	507	38	0
9	0	0	1	0	515	489	0	511	38	0
10	0	0	1	0	509	504	0	509	38	0
11	0	0	1	0	509	528	0	507	38	0
12	0	0	1	0	517	510	0	507	38	0
13	0	0	1	0	510	482	0	513	38	0
14	0	0	1	0	516	498	0	510	38	0
15	0	0	1	0	521	516	0	505	38	0
0	0	0	1	0	511	508	0	513	38	0
1	0	0	1	0	509	527	0	516	38	0
2	0	0	1	0	519	512	0	528	38	0
3	0	0	1	0	518	499	0	514	38	0
4	0	0	1	0	518	551	0	514	38	0
5	0	0	1	0	514	501	0	525	38	0
6	0	0	1	0	511	541	0	515	38	0
7	0	0	1	0	510	519	0	508	39	0
8	0	0	1	0	517	488	0	516	38	0
9	0	0	1	0	513	492	0	509	38	0
10	0	0	1	0	512	523	0	518	38	0
11	0	0	1	0	512	487	0	519	38	0
12	0	0	1	0	516	529	0	518	38	0
13	0	0	1	0	516	520	0	509	38	0
14	0	0	1	0	517	520	0	515	38	0
15	0	0	1	0	512	508	0	515	38	0
0	0	0	1	0	511	433	0	517	37	0
1	0	0	1	0	518	571	0	515	38	0
2	0	0	1	0	515	745	0	511	38	0
3	0	0	1	0	516	779	0	514	38	0
4	0	0	1	0	511	554	0	513	39	0
5	0	0	1	0	516	384	0	513	39	0
6	0	0	1	0	516	463	0	512	39	0
7	0	0	1	0	524	501	0	519	38	0
8	0	0	1	0	513	492	0	518	38	0
9	0	0	1	0	516	498	0	514	38	0
10	0	0	1	0	517	509	0	512	37	0
11	0	0	1	0	514	490	0	515	38	0
12	0	0	1	0	503	506	0	514	37	0
13	0	0	1	0	519	507	0	513	37	0
14	0	0	1	0	516	522	0	515	37	0
15	0	0	1	0	511	521	0	506	37	0
0	0	0	1	0	512	478	0	511	37	0
1	0	0	1	0	519	527	0	516	37	0
2	0	0	1	0	515	539	0	520	37	0
3	0	0	1	0	523	530	0	517	38	0
4	0	0	1	0	515	557	0	510	38	0
5	0	0	1	0	519	548	0	514	38	0
6	0	0	1	0	518	601	0	519	39	0
7	0	0	1	0	513	591	0	517	39	0
8	0	0	1	0	504	584	0	516	38	0
9	0	0	1	0	518	573	0	521	39	0
10	0	0	1	0	518	582	0	519	38	0
11	0	0	1	0	515	537	0	516	38	0
12	0	0	1	0	509	555	0	523	38	0
13	0	0	1	0	517	463	0	517	38	0
14	0	0	1	0	519	494	0	514	38	0
15	0	0	1	0	515	471	0	517	38	0
0	0	0	1	0	514	460	0	520	38	0
1	0	0	1	0	518	430	0	515	38	0
2	0	0	1	0	517	454	0	512	39	0
3	0	0	1	0	522	435	0	519	39	0
4	0	0	1	0	518	461	0	511	39	0
5	0	0	1	0	517	441	0	513	39	0
6	0	0	1	0	515	448	0	511	39	0
7	0	0	1	0	510	465	0	533	39	0
8	0	0	1	0	516	507	0	516	38	0
9	0	0	1	0	515	461	0	517	38	0
10	0	0	1	0	517	501	0	519	38	0
11	0	0	1	0	511	488	0	519	38	0
12	0	0	1	0	521	507	0	518	38	0
13	0	0	1	0	514	488	0	515	38	0
14	0	0	1	0	511	517	0	517	38	0
15	0	0	1	0	509	500	0	514	38	0
0	0	0	1	0	513	502	0	512	38	0
1	0	0	1	0	516	520	0	512	38	0
2	0	0	1	0	519	514	0	520	38	0
3	0	0	1	0	512	488	0	515	38	0
4	0	0	1	0	511	519	0	513	38	0
5	0	0	1	0	516	513	0	516	38	0
6	0	0	1	0	518	554	0	510	38	0
7	0	0	1	0	514	503	0	509	38	0
8	0	0	1	0	518	520	0	517	38	0
9	0	0	1	0	516	522	0	513	38	0
10	0	0	1	0	523	544	0	510	38	0
11	0	0	1	0	516	541	0	509	38	0
12	0	0	1	0	519	519	0	520	37	0
13	0	0	1	0	514	514	0	516	38	0
14	0	0	1	0	514	515	0	508	38	0
15	0	0	1	0	517	496	0	511	38	0
0	0	0	1	0	516	517	0	513	38	0
1	0	0	1	0	524	507	0	510	38	0
2	0	0	1	0	514	523	0	509	38	0
3	0	0	1	0	516	492	0	513	38	0
4	0	0	1	0	515	535	0	514	38	0
5	0	0	1	0	521	499	0	511	38	0
6	0	0	1	0	518	470	0	514	38	0
7	0	0	1	0	514	535	0	516	39	0
8	0	0	1	0	510	752	0	511	38	0
9	0	0	1	0	515	809	0	512	38	0
10	0	0	1	0	519	609	0	516	38	0
11	0	0	1	0	526	391	0	514	38	0
12	0	0	1	0	513	435	0	515	38	0
13	0	0	1	0	516	470	0	515	39	0
14	0	0	1	0	514	485	0	516	39	0
15	0	0	1	0	514	456	0	513	39	0
0	0	0	1	0	521	480	0	517	38	0
1	0	0	1	0	520	484	0	518	38	0
2	0	0	1	0	508	490	0	514	38	0
3	0	0	1	0	520	504	0	512	38	0
4	0	0	1	0	519	517	0	510	38	0
5	0	0	1	0	510	490	0	512	38	0
6	0	0	1	0	515	507	0	511	38	0
7	0	0	1	0	521	521	0	507	39	0
8	0	0	1	0	519	552	0	517	38	0
9	0	0	1	0	520	503	0	519	38	0
10	0	0	1	0	513	548	0	517	38	0
11	0	0	1	0	511	551	0	510	38	0
12	0	0	1	0	509	578	0	519	38	0
13	0	0	1	0	504	561	0	512	38	0
14	0	0	1	0	511	615	0	506	38	0
15	0	0	1	0	514	570	0	514	38	0
0	0	0	1	0	515	583	0	515	38	0
1	0	0	1	0	522	568	0	513	38	0
2	0	0	1	0	515	543	0	507	38	0
3	0	0	1	0	511	503	0	514	38	0
4	0	0	1	0	522	509	0	511	38	0
5	0	0	1	0	514	444	0	515	38	0
6	0	0	1	0	515	458	0	516	38	0
7	0	0	1	0	513	438	0	513	38	0
8	0	0	1	0	509	465	0	512	38	0
9	0	0	1	0	514	434	0	509	38	0
10	0	0	1	0	516	449	0	508	38	0
11	0	0	1	0	515	449	0	505	38	0
12	0	0	1	0	522	491	0	508	38	0
13	0	0	1	0	517	435	0	508	38	0
14	0	0	1	0	523	503	0	512	38	0
15	0	0	1	0	508	468	0	516	38	0
0	0	0	1	0	513	495	0	514	38	0
1	0	0	1	0	517	487	0	514	39	0
2	0	0	1	0	519	494	0	516	38	0
3	0	0	1	0	513	492	0	515	38	0
4	0	0	1	0	515	509	0	516	38	0
5	0	0	1	0	514	497	0	513	39	0
6	0	0	1	0	516	536	0	512	39	0
7	0	0	1	0	511	499	0	511	39	0
8	0	0	1	0	520	530	0	516	38	0
9	0	0	1	0	516	525	0	520	38	0
10	0	0	1	0	518	526	0	514	38	0
11	0	0	1	0	514	496	0	515	38	0
12	0	0	1	0	516	514	0	510	38	0
13	0	0	1	0	508	511	0	516	38	0
14	0	0	1	0	519	549	0	507	38	0
15	0	0	1	0	517	522	0	510	38	0
0	0	0	1	0	510	522	0	508	38	0
1	0	0	1	0	514	541	0	511	38	0
2	0	0	1	0	513	538	0	517	38	0
3	0	0	1	0	512	512	0	524	38	0
4	0	0	1	0	519	519	0	520	38	0
5	0	0	1	0	519	485	0	513	38	0
6	0	0	1	0	518	536	0	515	38	0
7	0	0	1	0	519	487	0	514	38	0
8	0	0	1	0	516	513	0	536	38	0
9	0	0	1	0	509	520	0	520	38	0
10	0	0	1	0	508	516	0	518	38	0
11	0	0	1	0	511	504	0	518	38	0
12	0	0	1	0	511	531	0	522	38	0
13	0	0	1	0	520	442	0	516	36	0
14	0	0	1	0	518	543	0	522	38	0
15	0	0	1	0	521	714	0	515	38	0
0	0	0	1	0	513	868	0	512	37	0
1	0	0	1	0	510	551	0	516	38	0
2	0	0	1	0	507	391	0	517	38	0
3	0	0	1	0	520	420	0	510	38	0
4	0	0	1	0	518	486	0	513	38	0
5	0	0	1	0	510	480	0	517	38	0
6	0	0	1	0	514	495	0	519	38	0
7	0	0	1	0	513	465	0	517	38	0
8	0	0	1	0	513	488	0	518	38	0
9	0	0	1	0	517	484	0	512	38	0
10	0	0	1	0	518	499	0	513	38	0
11	0	0	1	0	512	495	0	516	38	0
12	0	0	1	0	511	520	0	513	38	0
13	0	0	1	0	511	491	0	514	38	0
14	0	0	1	0	513	538	0	515	38	0
15	0	0	1	0	518	523	0	513	38	0
0	0	0	1	0	515	554	0	514	38	0
1	0	0	1	0	521	521	0	520	39	0
2	0	0	1	0	513	568	0	515	38	0
3	0	0	1	0	516	567	0	510	38	0
4	0	0	1	0	517	605	0	513	38	0
5	0	0	1	0	518	555	0	515	38	0
6	0	0	1	0	513	610	0	509	38	0
7	0	0	1	0	507	555	0	513	38	0
8	0	0	1	0	516	573	0	510	38	0
9	0	0	1	0	519	524	0	509	38	0
10	0	0	1	0	519	550	0	514	38	0
11	0	0	1	0	512	491	0	508	38	0
12	0	0	1	0	512	473	0	510	38	0
13	0	0	1	0	515	447	0	507	38	0
14	0	0	1	0	517	462	0	516	38	0
15	0	0	1	0	515	423	0	516	38	0
0	0	0	1	0	518	456	0	500	38	0
1	0	0	1	0	510	456	0	512	38	0
2	0	0	1	0	508	467	0	513	38	0
3	0	0	1	0	513	468	0	514	38	0
4	0	0	1	0	510	494	0	512	38	0
5	0	0	1	0	513	459	0	512	38	0
6	0	0	1	0	517	479	0	512	38	0
7	0	0	1	0	516	457	0	514	38	0
8	0	0	1	0	510	513	0	508	38	0
9	0	0	1	0	510	483	0	507	38	0
10	0	0	1	0	515	496	0	513	38	0
11	0	0	1	0	514	490	0	508	38	0
12	0	0	1	0	513	527	0	513	38	0
13	0	0	1	0	517	507	0	518	38	0
14	0	0	1	0	514	504	0	510	38	0
15	0	0	1	0	519	511	0	511	38	0
0	0	0	1	0	512	538	0	516	38	0
1	0	0	1	0	519	506	0	518	38	0
2	0	0	1	0	518	502	0	512	38	0
3	0	0	1	0	515	504	0	515	38	0
4	0	0	1	0	516	524	0	514	38	0
5	0	0	1	0	518	499	0	508	38	0
6	0	0	1	0	513	540	0	516	38	0
7	0	0	1	0	516	518	0	513	38	0
8	0	0	1	0	511	528	0	525	38	0
9	0	0	1	0	510	510	0	514	38	0
10	0	0	1	0	516	541	0	516	38	0
11	0	0	1	0	517	523	0	519	38	0
12	0	0	1	0	522	550	0	514	38	0
13	0	0	1	0	508	502	0	517	38	0
14	0	0	1	0	523	505	0	511	38	0
15	0	0	1	0	518	494	0	512	38	0
0	0	0	1	0	518	526	0	512	38	0
1	0	0	1	0	517	505	0	505	38	0
2	0	0	1	0	515	522	0	516	38	0
3	0	0	1	0	512	517	0	515	38	0
4	0	0	1	0	518	518	0	510	38	0
5	0	0	1	0	516	477	0	512	38	0
6	0	0	1	0	507	493	0	518	38	0
7	0	0	1	0	515	604	0	516	38	0
8	0	0	1	0	517	824	0	516	38	0
9	0	0	1	0	510	691	0	521	38	0
10	0	0	1	0	519	448	0	515	38	0
11	0	0	1	0	514	412	0	520	38	0
12	0	0	1	0	513	452	0	519	38	0
13	0	0	1	0	511	473	0	510	38	0
14	0	0	1	0	516	515	0	511	38	0
15	0	0	1	0	513	476	0	517	38	0
0	0	0	1	0	515	511	0	519	38	0
1	0	0	1	0	519	493	0	516	38	0
2	0	0	1	0	510	491	0	512	38	0
3	0	0	1	0	510	500	0	515	39	0
4	0	0	1	0	516	514	0	514	38	0
5	0	0	1	0	518	503	0	520	38	0
6	0	0	1	0	521	517	0	507	38	0
7	0	0	1	0	523	508	0	516	38	0
8	0	0	1	0	513	540	0	525	38	0
9	0	0	1	0	516	546	0	519	38	0
10	0	0	1	0	511	543	0	526	38	0
11	0	0	1	0	514	556	0	513	38	0
12	0	0	1	0	515	546	0	512	38	0
13	0	0	1	0	518	577	0	510	38	0
14	0	0	1	0	519	602	0	509	38	0
15	0	0	1	0	513	563	0	505	38	0
0	0	0	1	0	515	591	0	519	38	0
1	0	0	1	0	514	555	0	519	38	0
2	0	0	1	0	515	527	0	523	38	0
3	0	0	1	0	517	517	0	513	38	0
4	0	0	1	0	520	494	0	516	38	0
5	0	0	1	0	514	455	0	512	38	0
6	0	0	1	0	511	456	0	511	38	0
7	0	0	1	0	514	439	0	512	38	0
8	0	0	1	0	510	440	0	509	38	0
9	0	0	1	0	508	452	0	513	39	0
10	0	0	1	0	519	470	0	514	38	0
11	0	0	1	0	515	448	0	514	38	0
12	0	0	1	0	514	485	0	512	38	0
13	0	0	1	0	511	475	0	513	38	0
14	0	0	1	0	518	484	0	509	38	0
15	0	0	1	0	513	461	0	517	38	0
0	0	0	1	0	513	496	0	514	38	0
1	0	0	1	0	511	461	0	507	38	0
2	0	0	1	0	512	514	0	511	38	0
3	0	0	1	0	515	469	0	514	38	0
4	0	0	1	0	512	520	0	510	38	0
5	0	0	1	0	514	513	0	510	38	0
6	0	0	1	0	519	518	0	511	38	0
7	0	0	1	0	521	510	0	510	38	0
8	0	0	1	0	519	525	0	510	38	0
9	0	0	1	0	519	494	0	515	38	0
10	0	0	1	0	519	530	0	515	38	0
11	0	0	1	0	509	495	0	515	38	0
12	0	0	1	0	508	531	0	515	38	0
13	0	0	1	0	511	491	0	512	38	0
14	0	0	1	0	518	545	0	510	38	0
15	0	0	1	0	517	538	0	515	38	0
0	0	0	1	0	508	521	0	504	38	0
1	0	0	1	0	516	530	0	510	38	0
2	0	0	1	0	511	533	0	512	38	0
3	0	0	1	0	515	491	0	513	38	0
4	0	0	1	0	521	519	0	518	38	0
5	0	0	1	0	516	457	0	512	38	0
6	0	0	1	0	514	536	0	520	38	0
7	0	0	1	0	517	501	0	511	38	0
8	0	0	1	0	503	514	0	513	38	0
9	0	0	1	0	522	515	0	512	38	0
10	0	0	1	0	509	510	0	513	38	0
11	0	0	1	0	517	466	0	512	38	0
12	0	0	1	0	513	497	0	519	38	0
13	0	0	1	0	512	691	0	517	38	0
14	0	0	1	0	507	844	0	510	38	0
15	0	0	1	0	522	595	0	515	38	0
0	0	0	1	0	512	413	0	511	38	0
1	0	0	1	0	518	405	0	519	38	0
2	0	0	1	0	522	494	0	511	38	0
3	0	0	1	0	518	516	0	509	38	0
4	0	0	1	0	519	475	0	513	38	0
5	0	0	1	0	519	508	0	513	38	0
6	0	0	1	0	519	499	0	516	38	0
7	0	0	1	0	515	492	0	513	38	0
8	0	0	1	0	514	512	0	519	38	0
9	0	0	1	0	512	482	0	517	38	0
10	0	0	1	0	519	539	0	510	38	0
11	0	0	1	0	518	519	0	512	38	0
12	0	0	1	0	519	530	0	513	38	0
13	0	0	1	0	516	532	0	516	38	0
14	0	0	1	0	515	527	0	519	38	0
15	0	0	1	0	513	515	0	514	37	0
0	0	0	1	0	520	589	0	518	38	0
1	0	0	1	0	514	564	0	520	38	0
2	0	0	1	0	508	579	0	517	38	0
3	0	0	1	0	514	580	0	511	38	0
4	0	0	1	0	520	595	0	514	38	0
5	0	0	1	0	515	581	0	516	38	0
6	0	0	1	0	515	591	0	531	38	0
7	0	0	1	0	517	540	0	514	38	0
8	0	0	1	0	519	524	0	514	38	0
9	0	0	1	0	515	494	0	521	38	0
10	0	0	1	0	512	474	0	515	38	0
11	0	0	1	0	513	451	0	517	39	0
12	0	0	1	0	525	470	0	515	38	0
13	0	0	1	0	513	460	0	506	39	0
14	0	0	1	0	519	445	0	514	39	0
15	0	0	1	0	518	448	0	518	38	0
0	0	0	1	0	511	469	0	512	38	0
1	0	0	1	0	507	462	0	517	38	0
2	0	0	1	0	515	493	0	513	38	0
3	0	0	1	0	518	453	0	517	38	0
4	0	0	1	0	512	478	0	514	38	0
5	0	0	1	0	516	471	0	513	38	0
6	0	0	1	0	520	502	0	512	38	0
7	0	0	1	0	523	494	0	518	38	0
8	0	0	1	0	510	519	0	516	38	0
9	0	0	1	0	516	497	0	511	38	0
10	0	0	1	0	518	542	0	510	38	0
11	0	0	1	0	521	508	0	523	38	0
12	0	0	1	0	515	513	0	523	38	0
13	0	0	1	0	519	481	0	510	38	0
14	0	0	1	0	516	540	0	516	38	0
15	0	0	1	0	515	497	0	519	38	0
0	0	0	1	0	512	515	0	516	38	0
1	0	0	1	0	514	515	0	514	38	0
2	0	0	1	0	515	532	0	507	38	0
3	0	0	1	0	516	511	0	521	38	0
4	0	0	1	0	518	516	0	523	38	0
5	0	0	1	0	515	536	0	516	38	0
6	0	0	1	0	515	542	0	515	38	0
7	0	0	1	0	511	514	0	515	37	0
8	0	0	1	0	514	529	0	514	38	0
9	0	0	1	0	512	497	0	516	38	0
10	0	0	1	0	512	516	0	515	38	0
11	0	0	1	0	505	494	0	515	38	0
12	0	0	1	0	504	499	0	512	38	0
13	0	0	1	0	513	487	0	514	38	0
14	0	0	1	0	512	506	0	510	38	0
15	0	0	1	0	518	515	0	516	38	0
0	0	0	1	0	506	523	0	513	38	0
1	0	0	1	0	514	466	0	512	38	0
2	0	0	1	0	510	514	0	509	38	0
3	0	0	1	0	516	714	0	516	38	0
4	0	0	1	0	518	843	0	517	38	0
5	0	0	1	0	515	591	0	515	38	0
6	0	0	1	0	519	414	0	513	38	0
7	0	0	1	0	512	397	0	511	38	0
8	0	0	1	0	515	486	0	511	38	0
9	0	0	1	0	518	491	0	512	38	0
10	0	0	1	0	520	501	0	511	38	0
11	0	0	1	0	519	483	0	512	38	0
12	0	0	1	0	518	487	0	510	38	0
13	0	0	1	0	519	480	0	511	38	0
14	0	0	1	0	513	506	0	515	38	0
15	0	0	1	0	520	502	0	519	39	0
0	0	0	1	0	517	524	0	513	38	0
1	0	0	1	0	516	502	0	518	38	0
2	0	0	1	0	518	550	0	520	38	0
3	0	0	1	0	520	536	0	515	38	0
4	0	0	1	0	512	534	0	509	38	0
5	0	0	1	0	509	540	0	510	38	0
6	0	0	1	0	511	568	0	515	38	0
7	0	0	1	0	508	563	0	512	38	0
8	0	0	1	0	512	584	0	521	38	0
9	0	0	1	0	513	562	0	511	38	0
10	0	0	1	0	515	598	0	515	38	0
11	0	0	1	0	519	596	0	520	38	0
12	0	0	1	0	515	567	0	514	38	0
13	0	0	1	0	513	539	0	515	38	0
14	0	0	1	0	514	534	0	513	38	0
15	0	0	1	0	516	505	0	511	38	0
0	0	0	1	0	517	461	0	517	38	0
1	0	0	1	0	514	454	0	518	38	0
2	0	0	1	0	516	450	0	510	38	0
3	0	0	1	0	513	441	0	514	38	0
4	0	0	1	0	512	471	0	520	38	0
5	0	0	1	0	511	465	0	514	38	0
6	0	0	1	0	512	436	0	527	38	0
7	0	0	1	0	521	447	0	513	38	0
8	0	0	1	0	523	472	0	515	38	0
9	0	0	1	0	518	480	0	514	38	0
10	0	0	1	0	521	493	0	512	38	0
11	0	0	1	0	519	479	0	515	38	0
12	0	0	1	0	505	489	0	511	38	0
13	0	0	1	0	519	491	0	533	38	0
14	0	0	1	0	513	518	0	506	38	0
15	0	0	1	0	517	499	0	509	38	0
0	0	0	1	0	519	497	0	509	38	0
1	0	0	1	0	521	487	0	509	38	0
2	0	0	1	0	523	522	0	513	38	0
3	0	0	1	0	521	504	0	518	38	0
4	0	0	1	0	516	521	0	515	38	0
5	0	0	1	0	512	536	0	510	38	0
6	0	0	1	0	512	514	0	518	38	0
7	0	0	1	0	523	505	0	515	38	0
8	0	0	1	0	515	514	0	514	38	0
9	0	0	1	0	521	517	0	512	38	0
10	0	0	1	0	518	545	0	511	38	0
11	0	0	1	0	516	524	0	515	38	0
12	0	0	1	0	515	540	0	512	38	0
13	0	0	1	0	515	544	0	508	38	0
14	0	0	1	0	514	541	0	512	38	0
15	0	0	1	0	512	533	0	511	38	0
0	0	0	1	0	512	520	0	515	38	0
1	0	0	1	0	519	503	0	512	38	0
2	0	0	1	0	519	496	0	511	38	0
3	0	0	1	0	514	526	0	510	38	0
4	0	0	1	0	513	533	0	510	38	0
5	0	0	1	0	516	513	0	513	38	0
6	0	0	1	0	512	516	0	507	38	0
7	0	0	1	0	509	510	0	513	38	0
8	0	0	1	0	512	527	0	509	38	0
9	0	0	1	0	515	456	0	511	38	0
10	0	0	1	0	507	492	0	514	38	0
11	0	0	1	0	520	632	0	511	38	0
12	0	0	1	0	511	853	0	519	38	0
13	0	0	1	0	516	711	0	511	38	0
14	0	0	1	0	520	424	0	510	38	0
15	0	0	1	0	515	391	0	513	38	0
0	0	0	1	0	517	462	0	510	38	0
1	0	0	1	0	510	480	0	508	38	0
2	0	0	1	0	513	494	0	506	38	0
3	0	0	1	0	517	496	0	508	38	0
4	0	0	1	0	513	477	0	509	38	0
5	0	0	1	0	515	488	0	520	38	0
6	0	0	1	0	514	534	0	511	38	0
7	0	0	1	0	521	487	0	511	38	0
8	0	0	1	0	517	522	0	510	38	0
9	0	0	1	0	518	499	0	505	38	0
10	0	0	1	0	523	515	0	499	38	0
11	0	0	1	0	514	528	0	505	38	0
12	0	0	1	0	520	551	0	513	38	0
13	0	0	1	0	516	527	0	514	38	0
14	0	0	1	0	514	568	0	513	38	0
15	0	0	1	0	511	557	0	515	38	0
0	0	0	1	0	519	572	0	513	38	0
1	0	0	1	0	512	591	0	513	38	0
2	0	0	1	0	511	579	0	521	38	0
3	0	0	1	0	515	596	0	517	38	0
4	0	0	1	0	515	580	0	507	38	0
5	0	0	1	0	508	536	0	506	38	0
6	0	0	1	0	509	536	0	507	38	0
7	0	0	1	0	514	498	0	510	38	0
8	0	0	1	0	515	472	0	509	38	0
9	0	0	1	0	516	483	0	512	38	0
10	0	0	1	0	526	467	0	519	38	0
11	0	0	1	0	514	425	0	512	38	0
12	0	0	1	0	515	454	0	510	38	0
13	0	0	1	0	516	449	0	515	38	0
14	0	0	1	0	515	451	0	522	38	0
15	0	0	1	0	507	465	0	514	38	0
0	0	0	1	0	517	491	0	507	38	0
1	0	0	1	0	514	461	0	517	38	0
2	0	0	1	0	518	481	0	517	38	0
3	0	0	1	0	512	493	0	514	38	0
4	0	0	1	0	516	478	0	514	38	0
5	0	0	1	0	520	488	0	514	38	0
6	0	0	1	0	513	506	0	505	38	0
7	0	0	1	0	513	485	0	513	38	0
8	0	0	1	0	517	501	0	512	38	0
9	0	0	1	0	512	506	0	515	38	0
10	0	0	1	0	515	540	0	518	38	0
11	0	0	1	0	512	501	0	515	38	0
12	0	0	1	0	515	513	0	517	38	0
13	0	0	1	0	519	508	0	517	38	0
14	0	0	1	0	518	524	0	518	38	0
15	0	0	1	0	516	500	0	520	38	0
0	0	0	1	0	516	515	0	518	38	0
1	0	0	1	0	511	529	0	522	38	0
2	0	0	1	0	519	534	0	518	38	0
3	0	0	1	0	519	526	0	519	38	0
4	0	0	1	0	514	530	0	514	38	0
5	0	0	1	0	514	513	0	522	38	0
6	0	0	1	0	518	552	0	517	38	0
7	0	0	1	0	515	506	0	508	38	0
8	0	0	1	0	517	554	0	513	38	0
9	0	0	1	0	515	531	0	515	38	0
10	0	0	1	0	513	499	0	515	38	0
11	0	0	1	0	517	502	0	509	38	0
12	0	0	1	0	519	518	0	511	38	0
13	0	0	1	0	513	487	0	512	39	0
14	0	0	1	0	516	515	0	512	38	0
15	0	0	1	0	516	515	0	513	38	0
0	0	0	1	0	513	509	0	517	38	0
1	0	0	1	0	514	519	0	514	38	0
2	0	0	1	0	510	460	0	516	38	0
3	0	0	1	0	521	530	0	513	38	0
4	0	0	1	0	514	758	0	515	38	0
5	0	0	1	0	515	809	0	517	38	0
6	0	0	1	0	517	581	0	515	38	0
7	0	0	1	0	515	390	0	515	38	0
8	0	0	1	0	517	441	0	512	38	0
9	0	0	1	0	512	477	0	512	38	0
10	0	0	1	0	518	487	0	506	38	0
11	0	0	1	0	509	482	0	513	38	0
12	0	0	1	0	521	516	0	508	38	0
13	0	0	1	0	520	491	0	512	38	0
14	0	0	1	0	519	494	0	509	38	0
15	0	0	1	0	515	521	0	509	38	0
0	0	0	1	0	515	507	0	513	38	0
1	0	0	1	0	519	527	0	512	38	0
2	0	0	1	0	519	524	0	507	38	0
3	0	0	1	0	516	503	0	508	38	0
4	0	0	1	0	515	542	0	509	38	0
5	0	0	1	0	509	524	0	510	38	0
6	0	0	1	0	515	564	0	517	38	0
7	0	0	1	0	517	551	0	511	38	0
8	0	0	1	0	515	563	0	517	38	0
9	0	0	1	0	519	574	0	518	38	0
10	0	0	1	0	512	611	0	513	38	0
11	0	0	1	0	512	595	0	516	38	0
12	0	0	1	0	507	576	0	516	38	0
13	0	0	1	0	521	559	0	509	38	0
14	0	0	1	0	511	558	0	517	38	0
15	0	0	1	0	512	529	0	511	38	0
0	0	0	1	0	513	489	0	508	38	0
1	0	0	1	0	519	451	0	515	38	0
2	0	0	1	0	510	471	0	519	38	0
3	0	0	1	0	512	465	0	508	38	0
4	0	0	1	0	517	448	0	510	38	0
5	0	0	1	0	512	451	0	509	38	0
6	0	0	1	0	511	461	0	508	38	0
7	0	0	1	0	522	445	0	513	38	0
8	0	0	1	0	515	460	0	515	38	0
9	0	0	1	0	520	465	0	518	38	0
10	0	0	1	0	508	488	0	513	38	0
11	0	0	1	0	509	485	0	517	38	0
12	0	0	1	0	517	496	0	512	38	0
13	0	0	1	0	509	484	0	517	38	0
14	0	0	1	0	518	536	0	514	38	0
15	0	0	1	0	513	509	0	517	38	0
0	0	0	1	0	513	508	0	519	38	0
1	0	0	1	0	513	508	0	521	38	0
2	0	0	1	0	519	497	0	519	38	0
3	0	0	1	0	519	497	0	513	38	0
4	0	0	1	0	513	519	0	514	38	0
5	0	0	1	0	510	503	0	516	38	0
6	0	0	1	0	514	526	0	516	38	0
7	0	0	1	0	519	511	0	518	38	0
8	0	0	1	0	515	514	0	520	38	0
9	0	0	1	0	513	533	0	514	38	0
10	0	0	1	0	521	508	0	516	38	0
11	0	0	1	0	511	515	0	516	38	0
12	0	0	1	0	520	531	0	513	38	0
13	0	0	1	0	515	524	0	515	38	0
14	0	0	1	0	518	548	0	530	38	0
15	0	0	1	0	518	527	0	510	39	0
0	0	0	1	0	517	519	0	514	39	0
1	0	0	1	0	512	528	0	517	39	0
2	0	0	1	0	520	524	0	518	39	0
3	0	0	1	0	523	520	0	519	39	0
4	0	0	1	0	516	512	0	521	38	0
5	0	0	1	0	518	513	0	513	38	0
6	0	0	1	0	519	498	0	515	38	0
7	0	0	1	0	513	516	0	509	38	0
8	0	0	1	0	518	501	0	508	38	0
9	0	0	1	0	512	510	0	512	38	0
10	0	0	1	0	514	505	0	514	38	0
11	0	0	1	0	513	530	0	515	38	0
12	0	0	1	0	515	474	0	516	38	0
13	0	0	1	0	514	505	0	521	38	0
14	0	0	1	0	514	674	0	517	38	0
15	0	0	1	0	511	842	0	514	38	0
0	0	0	1	0	516	627	0	512	38	0
1	0	0	1	0	512	399	0	518	38	0
2	0	0	1	0	519	410	0	515	38	0
3	0	0	1	0	512	479	0	516	38	0
4	0	0	1	0	513	504	0	524	38	0
5	0	0	1	0	518	473	0	513	38	0
6	0	0	1	0	509	504	0	513	38	0
7	0	0	1	0	516	492	0	529	38	0
8	0	0	1	0	518	492	0	509	38	0
9	0	0	1	0	515	495	0	514	38	0
10	0	0	1	0	517	504	0	515	38	0
11	0	0	1	0	516	512	0	518	38	0
12	0	0	1	0	513	540	0	515	38	0
13	0	0	1	0	515	522	0	510	38	0
14	0	0	1	0	521	527	0	514	38	0
15	0	0	1	0	511	531	0	510	38	0
0	0	0	1	0	515	554	0	508	38	0
1	0	0	1	0	516	555	0	514	38	0
2	0	0	1	0	514	571	0	514	38	0
3	0	0	1	0	511	575	0	514	38	0
4	0	0	1	0	508	610	0	512	38	0
5	0	0	1	0	515	604	0	513	38	0
6	0	0	1	0	513	578	0	515	38	0
7	0	0	1	0	525	575	0	511	38	0
8	0	0	1	0	519	561	0	516	38	0
9	0	0	1	0	515	526	0	510	38	0
10	0	0	1	0	513	521	0	519	38	0
11	0	0	1	0	512	475	0	513	38	0
12	0	0	1	0	511	457	0	514	38	0
13	0	0	1	0	514	460	0	512	38	0
14	0	0	1	0	518	444	0	512	38	0
15	0	0	1	0	520	447	0	510	38	0
0	0	0	1	0	511	447	0	518	38	0
1	0	0	1	0	517	464	0	513	38	0
2	0	0	1	0	511	462	0	506	38	0
3	0	0	1	0	513	466	0	515	38	0
4	0	0	1	0	517	474	0	518	38	0
5	0	0	1	0	519	495	0	513	38	0
6	0	0	1	0	518	511	0	506	38	0
7	0	0	1	0	521	489	0	516	37	0
8	0	0	1	0	518	474	0	510	38	0
9	0	0	1	0	513	488	0	510	38	0
10	0	0	1	0	516	487	0	507	38	0
11	0	0	1	0	511	515	0	512	38	0
12	0	0	1	0	517	531	0	512	38	0
13	0	0	1	0	519	497	0	511	38	0
14	0	0	1	0	518	516	0	523	38	0
15	0	0	1	0	519	513	0	515	38	0
0	0	0	1	0	520	509	0	512	38	0
1	0	0	1	0	516	523	0	514	38	0
2	0	0	1	0	512	504	0	509	38	0
3	0	0	1	0	517	517	0	512	38	0
4	0	0	1	0	516	512	0	511	38	0
5	0	0	1	0	516	527	0	519	38	0
6	0	0	1	0	516	524	0	506	38	0
7	0	0	1	0	519	531	0	510	38	0
8	0	0	1	0	518	532	0	511	38	0
9	0	0	1	0	512	531	0	501	38	0
10	0	0	1	0	509	533	0	515	39	0
11	0	0	1	0	512	533	0	515	38	0
12	0	0	1	0	519	520	0	519	38	0
13	0	0	1	0	514	498	0	514	38	0
14	0	0	1	0	515	510	0	502	38	0
15	0	0	1	0	515	511	0	512	38	0
0	0	0	1	0	515	519	0	509	38	0
1	0	0	1	0	520	512	0	515	39	0
2	0	0	1	0	510	515	0	511	38	0
3	0	0	1	0	522	518	0	516	38	0
4	0	0	1	0	515	496	0	512	38	0
5	0	0	1	0	512	481	0	511	38	0
6	0	0	1	0	520	630	0	509	38	0
7	0	0	1	0	527	798	0	515	39	0
8	0	0	1	0	513	768	0	513	38	0
9	0	0	1	0	512	444	0	512	38	0
10	0	0	1	0	518	400	0	511	39	0
11	0	0	1	0	512	457	0	515	38	0
12	0	0	1	0	511	487	0	516	38	0
13	0	0	1	0	512	488	0	508	38	0
14	0	0	1	0	519	485	0	514	38	0
15	0	0	1	0	515	519	0	517	38	0
0	0	0	1	0	513	480	0	520	39	0
1	0	0	1	0	515	519	0	514	38	0
2	0	0	1	0	516	502	0	510	38	0
3	0	0	1	0	523	497	0	511	38	0
4	0	0	1	0	510	514	0	514	38	0
5	0	0	1	0	519	528	0	512	38	0
6	0	0	1	0	509	520	0	512	38	0
7	0	0	1	0	522	552	0	513	38	0
8	0	0	1	0	513	529	0	508	38	0
9	0	0	1	0	518	545	0	516	38	0
10	0	0	1	0	514	567	0	523	38	0
11	0	0	1	0	511	568	0	516	38	0
12	0	0	1	0	513	584	0	515	38	0
13	0	0	1	0	513	576	0	513	38	0
14	0	0	1	0	516	589	0	514	38	0
15	0	0	1	0	515	612	0	514	38	0
0	0	0	1	0	519	564	0	511	38	0
1	0	0	1	0	519	521	0	514	38	0
2	0	0	1	0	516	515	0	519	38	0
3	0	0	1	0	519	471	0	512	38	0
4	0	0	1	0	511	459	0	510	38	0
5	0	0	1	0	516	448	0	513	38	0
6	0	0	1	0	522	473	0	519	38	0
7	0	0	1	0	515	470	0	512	38	0
8	0	0	1	0	519	443	0	520	38	0
9	0	0	1	0	514	463	0	512	38	0
10	0	0	1	0	519	440	0	513	38	0
11	0	0	1	0	512	456	0	512	38	0
12	0	0	1	0	514	456	0	510	38	0
13	0	0	1	0	517	481	0	514	38	0
14	0	0	1	0	518	478	0	512	38	0
15	0	0	1	0	507	504	0	513	38	0
0	0	0	1	0	519	479	0	511	38	0
1	0	0	1	0	507	540	0	510	38	0
2	0	0	1	0	516	504	0	511	38	0
3	0	0	1	0	519	520	0	516	38	0
4	0	0	1	0	512	495	0	519	38	0
5	0	0	1	0	519	487	0	510	38	0
6	0	0	1	0	513	533	0	515	38	0
7	0	0	1	0	508	504	0	515	38	0
8	0	0	1	0	519	509	0	512	38	0
9	0	0	1	0	516	540	0	508	38	0
10	0	0	1	0	518	507	0	509	38	0
11	0	0	1	0	515	531	0	514	38	0
12	0	0	1	0	515	524	0	518	38	0
13	0	0	1	0	521	521	0	518	38	0
14	0	0	1	0	518	512	0	515	38	0
15	0	0	1	0	514	499	0	515	38	0
0	0	0	1	0	517	521	0	514	38	0
1	0	0	1	0	521	529	0	516	38	0
2	0	0	1	0	508	546	0	519	38	0
3	0	0	1	0	518	532	0	520	38	0
4	0	0	1	0	519	491	0	512	38	0
5	0	0	1	0	521	498	0	522	38	0
6	0	0	1	0	514	519	0	515	38	0
7	0	0	1	0	518	501	0	515	38	0
8	0	0	1	0	518	492	0	514	38	0
9	0	0	1	0	514	541	0	520	38	0
10	0	0	1	0	515	519	0	519	38	0
11	0	0	1	0	514	509	0	510	38	0
12	0	0	1	0	510	480	0	519	38	0
13	0	0	1	0	519	561	0	515	38	0
14	0	0	1	0	515	751	0	517	38	0
15	0	0	1	0	520	795	0	518	38	0
0	0	0	1	0	515	494	0	506	38	0
1	0	0	1	0	517	423	0	518	38	0
2	0	0	1	0	518	433	0	516	38	0
3	0	0	1	0	510	495	0	523	39	0
4	0	0	1	0	511	511	0	514	38	0
5	0	0	1	0	518	469	0	518	38	0
6	0	0	1	0	517	479	0	515	41	0
7	0	0	1	0	511	522	0	514	38	0
8	0	0	1	0	515	481	0	515	38	0
9	0	0	1	0	514	531	0	517	39	0
10	0	0	1	0	512	519	0	511	38	0
11	0	0	1	0	507	500	0	510	38	0
12	0	0	1	0	519	516	0	519	38	0
13	0	0	1	0	513	537	0	521	39	0
14	0	0	1	0	514	509	0	515	39	0
15	0	0	1	0	519	550	0	514	39	0
0	0	0	1	0	516	557	0	508	38	0
1	0	0	1	0	513	547	0	508	38	0
2	0	0	1	0	516	582	0	512	38	0
3	0	0	1	0	513	587	0	512	38	0
4	0	0	1	0	516	575	0	509	38	0
5	0	0	1	0	513	618	0	510	38	0
6	0	0	1	0	515	558	0	517	38	0
7	0	0	1	0	515	563	0	514	38	0
8	0	0	1	0	508	562	0	516	38	0
9	0	0	1	0	511	501	0	517	38	0
10	0	0	1	0	515	479	0	516	38	0
11	0	0	1	0	512	471	0	513	38	0
12	0	0	1	0	515	437	0	516	38	0
13	0	0	1	0	518	453	0	511	38	0
14	0	0	1	0	522	446	0	512	38	0
15	0	0	1	0	520	446	0	510	38	0
0	0	0	1	0	514	445	0	514	38	0
1	0	0	1	0	521	458	0	516	38	0
2	0	0	1	0	514	463	0	505	38	0
3	0	0	1	0	513	470	0	515	38	0
4	0	0	1	0	518	470	0	518	38	0
5	0	0	1	0	513	501	0	511	38	0
6	0	0	1	0	515	473	0	510	38	0
7	0	0	1	0	514	514	0	508	38	0
8	0	0	1	0	519	499	0	512	38	0
9	0	0	1	0	515	496	0	511	38	0
10	0	0	1	0	517	505	0	522	38	0
11	0	0	1	0	511	513	0	513	38	0
12	0	0	1	0	511	509	0	512	38	0
13	0	0	1	0	517	527	0	506	38	0
14	0	0	1	0	505	500	0	512	38	0
15	0	0	1	0	515	527	0	517	38	0
0	0	0	1	0	514	517	0	512	38	0
1	0	0	1	0	517	518	0	516	38	0
2	0	0	1	0	516	516	0	521	38	0
3	0	0	1	0	523	523	0	512	38	0
4	0	0	1	0	521	515	0	513	38	0
5	0	0	1	0	515	533	0	518	38	0
6	0	0	1	0	515	515	0	515	38	0
7	0	0	1	0	513	529	0	508	39	0
8	0	0	1	0	520	538	0	517	38	0
9	0	0	1	0	521	522	0	515	38	0
10	0	0	1	0	516	537	0	519	38	0
11	0	0	1	0	509	508	0	511	38	0
12	0	0	1	0	521	510	0	514	38	0
13	0	0	1	0	520	517	0	512	38	0
14	0	0	1	0	512	494	0	526	38	0
15	0	0	1	0	519	523	0	516	38	0
0	0	0	1	0	510	504	0	515	38	0
1	0	0	1	0	516	513	0	515	38	0
2	0	0	1	0	515	498	0	510	39	0
3	0	0	1	0	514	498	0	516	38	0
4	0	0	1	0	520	478	0	515	38	0
5	0	0	1	0	511	681	0	513	38	0
6	0	0	1	0	517	836	0	515	38	0
7	0	0	1	0	513	669	0	516	38	0
8	0	0	1	0	520	382	0	513	38	0
9	0	0	1	0	513	423	0	510	38	0
10	0	0	1	0	512	472	0	513	38	0
11	0	0	1	0	518	475	0	509	38	0
12	0	0	1	0	519	492	0	513	38	0
13	0	0	1	0	511	495	0	510	38	0
14	0	0	1	0	515	503	0	513	38	0
15	0	0	1	0	515	511	0	515	38	0
0	0	0	1	0	516	503	0	511	38	0
1	0	0	1	0	514	524	0	508	38	0
2	0	0	1	0	511	505	0	509	38	0
3	0	0	1	0	518	512	0	512	38	0
4	0	0	1	0	508	515	0	512	38	0
5	0	0	1	0	521	547	0	511	38	0
6	0	0	1	0	519	536	0	512	38	0
7	0	0	1	0	514	559	0	512	38	0
8	0	0	1	0	515	544	0	512	38	0
9	0	0	1	0	508	568	0	512	38	0
10	0	0	1	0	508	601	0	520	38	0
11	0	0	1	0	517	564	0	519	38	0
12	0	0	1	0	518	587	0	516	38	0
13	0	0	1	0	511	588	0	517	38	0
14	0	0	1	0	519	570	0	518	38	0
15	0	0	1	0	516	552	0	510	38	0
0	0	0	1	0	523	505	0	512	38	0
1	0	0	1	0	516	489	0	515	38	0
2	0	0	1	0	515	484	0	508	38	0
3	0	0	1	0	513	468	0	508	38	0
4	0	0	1	0	515	435	0	509	38	0
5	0	0	1	0	519	451	0	515	38	0
6	0	0	1	0	515	442	0	512	38	0
7	0	0	1	0	515	454	0	520	38	0
8	0	0	1	0	513	449	0	511	38	0
9	0	0	1	0	513	455	0	507	38	0
10	0	0	1	0	515	465	0	505	38	0
11	0	0	1	0	514	481	0	506	38	0
12	0	0	1	0	521	455	0	506	38	0
13	0	0	1	0	515	485	0	509	38	0
14	0	0	1	0	518	499	0	508	38	0
15	0	0	1	0	514	484	0	513	39	0
0	0	0	1	0	520	519	0	509	38	0
1	0	0	1	0	515	507	0	514	39	0
2	0	0	1	0	518	494	0	512	38	0
3	0	0	1	0	522	498	0	513	38	0
4	0	0	1	0	520	515	0	502	38	0
5	0	0	1	0	514	514	0	499	38	0
6	0	0	1	0	519	516	0	507	38	0
7	0	0	1	0	514	514	0	508	38	0
8	0	0	1	0	516	503	0	509	38	0
9	0	0	1	0	517	533	0	515	38	0
10	0	0	1	0	520	504	0	511	38	0
11	0	0	1	0	514	516	0	510	38	0
12	0	0	1	0	514	512	0	503	38	0
13	0	0	1	0	514	521	0	506	38	0
14	0	0	1	0	514	527	0	504	38	0
15	0	0	1	0	516	535	0	514	38	0
0	0	0	1	0	514	517	0	516	38	0
1	0	0	1	0	517	543	0	518	38	0
2	0	0	1	0	514	480	0	518	38	0
3	0	0	1	0	509	530	0	516	38	0
4	0	0	1	0	515	526	0	514	38	0
5	0	0	1	0	518	515	0	511	38	0
6	0	0	1	0	519	489	0	508	38	0
7	0	0	1	0	514	514	0	518	38	0
8	0	0	1	0	521	518	0	518	38	0
9	0	0	1	0	513	536	0	516	38	0
10	0	0	1	0	508	443	0	515	38	0
11	0	0	1	0	523	500	0	510	38	0
12	0	0	1	0	517	649	0	515	38	0
13	0	0	1	0	517	856	0	514	38	0
14	0	0	1	0	516	639	0	515	38	0
15	0	0	1	0	505	411	0	513	38	0
0	0	0	1	0	512	417	0	505	38	0
1	0	0	1	0	513	476	0	516	38	0
2	0	0	1	0	514	493	0	513	38	0
3	0	0	1	0	506	478	0	511	38	0
4	0	0	1	0	509	495	0	516	38	0
5	0	0	1	0	509	484	0	512	38	0
6	0	0	1	0	516	490	0	515	38	0
7	0	0	1	0	517	500	0	511	38	0
8	0	0	1	0	517	504	0	518	38	0
9	0	0	1	0	512	528	0	512	38	0
10	0	0	1	0	520	511	0	517	38	0
11	0	0	1	0	515	514	0	516	38	0
12	0	0	1	0	515	518	0	510	38	0
13	0	0	1	0	514	529	0	513	38	0
14	0	0	1	0	521	548	0	510	38	0
15	0	0	1	0	512	554	0	513	38	0
0	0	0	1	0	521	549	0	513	38	0
1	0	0	1	0	512	590	0	518	38	0
2	0	0	1	0	513	600	0	513	38	0
3	0	0	1	0	513	592	0	514	38	0
4	0	0	1	0	513	577	0	515	38	0
5	0	0	1	0	512	574	0	518	38	0
6	0	0	1	0	514	534	0	515	38	0
7	0	0	1	0	512	516	0	516	38	0
8	0	0	1	0	515	490	0	515	38	0
9	0	0	1	0	515	476	0	508	38	0
10	0	0	1	0	513	462	0	508	38	0
11	0	0	1	0	515	457	0	513	38	0
12	0	0	1	0	526	460	0	510	38	0
13	0	0	1	0	507	430	0	512	38	0
14	0	0	1	0	512	444	0	512	39	0
15	0	0	1	0	516	469	0	530	38	0
0	0	0	1	0	519	445	0	517	38	0
1	0	0	1	0	516	483	0	512	38	0
2	0	0	1	0	519	457	0	511	38	0
3	0	0	1	0	515	471	0	515	38	0
4	0	0	1	0	514	477	0	515	38	0
5	0	0	1	0	516	508	0	512	38	0
6	0	0	1	0	519	495	0	519	39	0
7	0	0	1	0	515	529	0	511	39	0
8	0	0	1	0	514	479	0	518	38	0
9	0	0	1	0	517	515	0	521	38	0
10	0	0	1	0	512	507	0	514	38	0
11	0	0	1	0	516	505	0	519	38	0
12	0	0	1	0	517	499	0	517	38	0
13	0	0	1	0	515	512	0	517	38	0
14	0	0	1	0	514	504	0	511	38	0
15	0	0	1	0	511	517	0	516	39	0
0	0	0	1	0	516	522	0	516	38	0
1	0	0	1	0	516	504	0	514	39	0
2	0	0	1	0	516	502	0	514	38	0
3	0	0	1	0	514	536	0	513	38	0
4	0	0	1	0	518	517	0	520	38	0
5	0	0	1	0	518	532	0	521	39	0
6	0	0	1	0	517	515	0	515	38	0
7	0	0	1	0	511	515	0	516	39	0
8	0	0	1	0	518	527	0	513	38	0
9	0	0	1	0	511	540	0	516	38	0
10	0	0	1	0	515	516	0	513	38	0
11	0	0	1	0	521	515	0	511	38	0
12	0	0	1	0	513	484	0	512	38	0
13	0	0	1	0	523	509	0	512	39	0
14	0	0	1	0	519	496	0	514	38	0
15	0	0	1	0	514	500	0	511	38	0
0	0	0	1	0	519	521	0	513	38	0
1	0	0	1	0	504	530	0	515	38	0
2	0	0	1	0	512	484	0	507	38	0
3	0	0	1	0	518	452	0	510	39	0
4	0	0	1	0	519	559	0	515	38	0
5	0	0	1	0	513	745	0	530	38	0
6	0	0	1	0	513	774	0	509	38	0
7	0	0	1	0	512	540	0	510	39	0
8	0	0	1	0	516	385	0	513	38	0
9	0	0	1	0	518	442	0	512	38	0
10	0	0	1	0	514	460	0	510	38	0
11	0	0	1	0	515	486	0	512	38	0
12	0	0	1	0	513	475	0	509	38	0
13	0	0	1	0	515	500	0	508	38	0
14	0	0	1	0	515	470	0	514	38	0
15	0	0	1	0	514	524	0	512	38	0
0	0	0	1	0	519	499	0	511	38	0
1	0	0	1	0	515	514	0	508	38	0
2	0	0	1	0	519	502	0	519	38	0
3	0	0	1	0	512	528	0	511	38	0
4	0	0	1	0	516	525	0	509	38	0
5	0	0	1	0	514	529	0	516	38	0
6	0	0	1	0	512	528	0	513	38	0
7	0	0	1	0	513	541	0	513	38	0
8	0	0	1	0	515	551	0	515	38	0
9	0	0	1	0	511	580	0	516	38	0
10	0	0	1	0	515	553	0	514	38	0
11	0	0	1	0	516	588	0	510	38	0
12	0	0	1	0	518	579	0	510	38	0
13	0	0	1	0	515	600	0	516	38	0
14	0	0	1	0	510	564	0	515	38	0
15	0	0	1	0	516	536	0	519	38	0
0	0	0	1	0	521	508	0	519	38	0
1	0	0	1	0	515	504	0	518	38	0
2	0	0	1	0	513	463	0	513	38	0
3	0	0	1	0	514	450	0	516	38	0
4	0	0	1	0	515	439	0	511	38	0
5	0	0	1	0	516	453	0	514	38	0
6	0	0	1	0	517	433	0	519	38	0
7	0	0	1	0	515	456	0	509	38	0
8	0	0	1	0	516	433	0	513	38	0
9	0	0	1	0	512	467	0	513	38	0
10	0	0	1	0	518	458	0	515	38	0
11	0	0	1	0	511	494	0	513	38	0
12	0	0	1	0	519	461	0	522	38	0
13	0	0	1	0	524	487	0	515	38	0
14	0	0	1	0	525	503	0	518	38	0
15	0	0	1	0	513	519	0	517	38	0
0	0	0	1	0	524	489	0	516	38	0
1	0	0	1	0	515	507	0	516	38	0
2	0	0	1	0	511	504	0	513	38	0
3	0	0	1	0	519	501	0	511	38	0
4	0	0	1	0	507	516	0	510	38	0
5	0	0	1	0	511	519	0	515	38	0
6	0	0	1	0	516	497	0	515	38	0
7	0	0	1	0	519	529	0	521	38	0
8	0	0	1	0	515	487	0	516	38	0
9	0	0	1	0	525	521	0	510	38	0
10	0	0	1	0	511	501	0	514	38	0
11	0	0	1	0	518	545	0	516	38	0
12	0	0	1	0	508	502	0	514	38	0
13	0	0	1	0	514	522	0	511	38	0
14	0	0	1	0	513	499	0	510	38	0
15	0	0	1	0	518	548	0	518	38	0
0	0	0	1	0	507	515	0	512	38	0
1	0	0	1	0	518	545	0	512	38	0
2	0	0	1	0	511	501	0	521	38	0
3	0	0	1	0	514	518	0	517	38	0
4	0	0	1	0	520	511	0	512	38	0
5	0	0	1	0	520	515	0	519	38	0
6	0	0	1	0	514	500	0	518	38	0
7	0	0	1	0	513	510	0	519	38	0
8	0	0	1	0	514	506	0	520	38	0
9	0	0	1	0	518	506	0	512	38	0
10	0	0	1	0	516	465	0	513	38	0
11	0	0	1	0	512	532	0	510	39	0
12	0	0	1	0	516	699	0	519	38	0
13	0	0	1	0	518	829	0	512	38	0
14	0	0	1	0	512	577	0	515	38	0
15	0	0	1	0	513	399	0	519	38	0
0	0	0	1	0	516	416	0	518	38	0
1	0	0	1	0	508	487	0	518	38	0
2	0	0	1	0	514	487	0	508	38	0
3	0	0	1	0	513	481	0	513	38	0
4	0	0	1	0	512	462	0	517	38	0
5	0	0	1	0	518	512	0	522	38	0
6	0	0	1	0	520	502	0	512	38	0
7	0	0	1	0	514	510	0	512	38	0
8	0	0	1	0	518	507	0	515	38	0
9	0	0	1	0	512	523	0	513	38	0
10	0	0	1	0	513	504	0	521	38	0
11	0	0	1	0	526	529	0	516	38	0
12	0	0	1	0	511	508	0	519	38	0
13	0	0	1	0	518	572	0	515	39	0
14	0	0	1	0	522	515	0	513	38	0
15	0	0	1	0	521	557	0	512	38	0
0	0	0	1	0	515	568	0	528	38	0
1	0	0	1	0	510	590	0	517	38	0
2	0	0	1	0	518	581	0	519	38	0
3	0	0	1	0	516	579	0	511	39	0
4	0	0	1	0	508	573	0	506	38	0
5	0	0	1	0	515	576	0	510	38	0
6	0	0	1	0	521	548	0	516	38	0
7	0	0	1	0	521	525	0	516	38	0
8	0	0	1	0	514	489	0	512	38	0
9	0	0	1	0	520	475	0	512	38	0
10	0	0	1	0	521	464	0	510	38	0
11	0	0	1	0	515	460	0	509	38	0
12	0	0	1	0	512	414	0	509	38	0
13	0	0	1	0	507	452	0	515	38	0
14	0	0	1	0	520	433	0	511	38	0
15	0	0	1	0	513	472	0	507	38	0
0	0	0	1	0	520	451	0	512	38	0
1	0	0	1	0	513	473	0	503	38	0
2	0	0	1	0	511	476	0	508	38	0
3	0	0	1	0	512	469	0	504	38	0
4	0	0	1	0	508	460	0	504	38	0
5	0	0	1	0	515	515	0	512	38	0
6	0	0	1	0	518	465	0	511	38	0
7	0	0	1	0	514	477	0	507	38	0
8	0	0	1	0	515	502	0	510	38	0
9	0	0	1	0	512	508	0	509	38	0
10	0	0	1	0	510	505	0	508	38	0
11	0	0	1	0	514	517	0	511	38	0
12	0	0	1	0	511	507	0	510	38	0
13	0	0	1	0	523	533	0	519	38	0
14	0	0	1	0	512	480	0	515	39	0
15	0	0	1	0	510	511	0	508	39	0
0	0	0	1	0	515	502	0	515	39	0
1	0	0	1	0	511	516	0	516	39	0
2	0	0	1	0	512	514	0	515	39	0
3	0	0	1	0	519	527	0	516	38	0
4	0	0	1	0	507	515	0	519	38	0
5	0	0	1	0	513	543	0	522	38	0
6	0	0	1	0	517	508	0	515	38	0
7	0	0	1	0	515	511	0	514	38	0
8	0	0	1	0	518	527	0	519	38	0
9	0	0	1	0	513	530	0	520	38	0
10	0	0	1	0	513	527	0	523	38	0
11	0	0	1	0	521	521	0	518	38	0
12	0	0	1	0	516	497	0	518	38	0
13	0	0	1	0	513	514	0	515	38	0
14	0	0	1	0	515	513	0	523	38	0
15	0	0	1	0	504	532	0	517	38	0
0	0	0	1	0	519	508	0	515	38	0
1	0	0	1	0	519	493	0	523	38	0
2	0	0	1	0	519	511	0	515	38	0
3	0	0	1	0	518	513	0	520	38	0
4	0	0	1	0	513	464	0	510	38	0
5	0	0	1	0	512	487	0	510	39	0
6	0	0	1	0	511	639	0	512	38	0
7	0	0	1	0	511	828	0	519	38	0
8	0	0	1	0	515	685	0	520	38	0
9	0	0	1	0	517	432	0	515	38	0
10	0	0	1	0	508	408	0	516	38	0
11	0	0	1	0	516	461	0	516	38	0
12	0	0	1	0	506	497	0	512	38	0
13	0	0	1	0	517	504	0	514	38	0
14	0	0	1	0	515	460	0	514	38	0
15	0	0	1	0	513	498	0	513	38	0
0	0	0	1	0	523	478	0	513	38	0
1	0	0	1	0	522	509	0	516	38	0
2	0	0	1	0	516	517	0	504	38	0
3	0	0	1	0	521	539	0	509	38	0
4	0	0	1	0	520	510	0	516	38	0
5	0	0	1	0	511	510	0	509	38	0
6	0	0	1	0	515	526	0	508	38	0
7	0	0	1	0	513	542	0	506	38	0
8	0	0	1	0	516	517	0	515	38	0
9	0	0	1	0	518	537	0	509	38	0
10	0	0	1	0	518	547	0	514	38	0
11	0	0	1	0	509	566	0	524	39	0
12	0	0	1	0	518	576	0	517	39	0
13	0	0	1	0	512	585	0	530	39	0
14	0	0	1	0	515	577	0	509	39	0
15	0	0	1	0	521	583	0	523	39	0
0	0	0	1	0	518	544	0	518	38	0
1	0	0	1	0	515	524	0	519	38	0
2	0	0	1	0	511	494	0	512	38	0
3	0	0	1	0	517	483	0	518	38	0
4	0	0	1	0	517	444	0	510	38	0
5	0	0	1	0	514	465	0	518	38	0
6	0	0	1	0	511	437	0	520	38	0
7	0	0	1	0	520	431	0	513	38	0
8	0	0	1	0	508	433	0	511	38	0
9	0	0	1	0	514	483	0	511	38	0
10	0	0	1	0	516	448	0	514	38	0
11	0	0	1	0	518	478	0	512	38	0
12	0	0	1	0	515	454	0	508	38	0
13	0	0	1	0	521	496	0	517	38	0
14	0	0	1	0	514	471	0	502	38	0
15	0	0	1	0	513	514	0	513	38	0
0	0	0	1	0	510	472	0	518	38	0
1	0	0	1	0	516	508	0	519	38	0
2	0	0	1	0	512	513	0	513	38	0
3	0	0	1	0	506	516	0	518	38	0
4	0	0	1	0	517	502	0	516	38	0
5	0	0	1	0	515	519	0	511	38	0
6	0	0	1	0	511	507	0	510	38	0
7	0	0	1	0	514	528	0	512	38	0
8	0	0	1	0	514	509	0	516	38	0
9	0	0	1	0	513	524	0	511	38	0
10	0	0	1	0	512	491	0	515	38	0
11	0	0	1	0	515	546	0	519	38	0
12	0	0	1	0	517	500	0	511	38	0
13	0	0	1	0	513	528	0	516	38	0
14	0	0	1	0	521	511	0	512	38	0
15	0	0	1	0	511	521	0	510	38	0
0	0	0	1	0	515	522	0	509	38	0
1	0	0	1	0	520	545	0	512	38	0
2	0	0	1	0	503	521	0	507	38	0
3	0	0	1	0	517	536	0	515	38	0
4	0	0	1	0	514	519	0	514	38	0
5	0	0	1	0	515	535	0	515	38	0
6	0	0	1	0	513	516	0	511	38	0
7	0	0	1	0	505	512	0	511	38	0
8	0	0	1	0	514	505	0	513	38	0
9	0	0	1	0	522	519	0	508	38	0
10	0	0	1	0	516	491	0	510	38	0
11	0	0	1	0	510	505	0	515	38	0
12	0	0	1	0	521	517	0	509	38	0
13	0	0	1	0	516	520	0	513	38	0
14	0	0	1	0	511	493	0	519	38	0
15	0	0	1	0	518	479	0	517	38	0
0	0	0	1	0	514	539	0	513	38	0
1	0	0	1	0	521	727	0	511	38	0
2	0	0	1	0	520	806	0	512	38	0
3	0	0	1	0	513	583	0	509	38	0
4	0	0	1	0	516	362	0	510	38	0
5	0	0	1	0	518	440	0	509	38	0
6	0	0	1	0	514	473	0	513	38	0
7	0	0	1	0	521	492	0	511	38	0
8	0	0	1	0	518	475	0	511	38	0
9	0	0	1	0	517	500	0	512	38	0
10	0	0	1	0	520	496	0	511	38	0
11	0	0	1	0	519	500	0	507	38	0
12	0	0	1	0	511	512	0	509	38	0
13	0	0	1	0	517	518	0	517	38	0
14	0	0	1	0	516	510	0	515	38	0
15	0	0	1	0	515	534	0	514	38	0
0	0	0	1	0	517	492	0	513	38	0
1	0	0	1	0	514	540	0	517	38	0
2	0	0	1	0	520	547	0	509	38	0
3	0	0	1	0	520	544	0	513	38	0
4	0	0	1	0	516	556	0	510	38	0
5	0	0	1	0	519	574	0	516	38	0
6	0	0	1	0	516	566	0	517	38	0
7	0	0	1	0	513	590	0	515	38	0
8	0	0	1	0	511	600	0	517	38	0
9	0	0	1	0	515	580	0	520	38	0
10	0	0	1	0	513	567	0	515	38	0
11	0	0	1	0	511	549	0	513	38	0
12	0	0	1	0	513	528	0	515	38	0
13	0	0	1	0	514	507	0	514	38	0
14	0	0	1	0	514	457	0	511	38	0
15	0	0	1	0	515	480	0	518	38	0
0	0	0	1	0	519	434	0	514	38	0
1	0	0	1	0	519	457	0	515	38	0
2	0	0	1	0	510	441	0	514	38	0
3	0	0	1	0	512	461	0	515	38	0
4	0	0	1	0	513	458	0	518	38	0
5	0	0	1	0	520	470	0	520	38	0
6	0	0	1	0	516	448	0	511	38	0
7	0	0	1	0	508	497	0	514	38	0
8	0	0	1	0	517	465	0	514	38	0
9	0	0	1	0	513	495	0	514	38	0
10	0	0	1	0	515	474	0	515	38	0
11	0	0	1	0	519	505	0	515	38	0
12	0	0	1	0	516	476	0	515	38	0
13	0	0	1	0	512	515	0	513	38	0
14	0	0	1	0	511	505	0	508	38	0
15	0	0	1	0	507	528	0	511	38	0
0	0	0	1	0	515	498	0	514	38	0
1	0	0	1	0	515	492	0	519	38	0
2	0	0	1	0	511	516	0	515	38	0
3	0	0	1	0	521	516	0	519	38	0
4	0	0	1	0	515	499	0	519	38	0
5	0	0	1	0	514	527	0	507	38	0
6	0	0	1	0	512	534	0	508	38	0
7	0	0	1	0	515	539	0	514	38	0
8	0	0	1	0	518	507	0	515	38	0
9	0	0	1	0	513	526	0	509	38	0
10	0	0	1	0	507	509	0	513	38	0
11	0	0	1	0	510	519	0	519	38	0
12	0	0	1	0	514	522	0	514	38	0
13	0	0	1	0	512	539	0	509	38	0
14	0	0	1	0	518	514	0	509	38	0
15	0	0	1	0	513	538	0	513	38	0
0	0	0	1	0	517	523	0	511	38	0
1	0	0	1	0	519	545	0	508	38	0
2	0	0	1	0	513	529	0	509	38	0
3	0	0	1	0	515	507	0	511	38	0
4	0	0	1	0	513	490	0	514	38	0
5	0	0	1	0	513	523	0	517	38	0
6	0	0	1	0	519	483	0	510	38	0
7	0	0	1	0	515	523	0	512	38	0
8	0	0	1	0	510	508	0	510	38	0
9	0	0	1	0	505	515	0	509	38	0
10	0	0	1	0	516	515	0	512	38	0
11	0	0	1	0	515	492	0	511	38	0
12	0	0	1	0	515	453	0	507	38	0
13	0	0	1	0	518	617	0	511	38	0
14	0	0	1	0	519	787	0	513	38	0
15	0	0	1	0	516	745	0	511	38	0
0	0	0	1	0	515	452	0	514	38	0
1	0	0	1	0	510	416	0	513	38	0
2	0	0	1	0	521	437	0	515	38	0
3	0	0	1	0	514	519	0	513	38	0
4	0	0	1	0	518	468	0	511	38	0
5	0	0	1	0	521	481	0	509	38	0
6	0	0	1	0	516	480	0	506	38	0
7	0	0	1	0	518	512	0	516	38	0
8	0	0	1	0	518	489	0	508	38	0
9	0	0	1	0	515	515	0	512	38	0
10	0	0	1	0	513	490	0	513	38	0
11	0	0	1	0	516	508	0	508	38	0
12	0	0	1	0	514	509	0	510	38	0
13	0	0	1	0	518	539	0	532	38	0
14	0	0	1	0	518	508	0	513	38	0
15	0	0	1	0	514	553	0	508	38	0
0	0	0	1	0	518	526	0	512	38	0
1	0	0	1	0	515	588	0	523	38	0
2	0	0	1	0	515	559	0	511	38	0
3	0	0	1	0	516	582	0	515	38	0
4	0	0	1	0	515	564	0	514	38	0
5	0	0	1	0	516	604	0	508	38	0
6	0	0	1	0	516	569	0	510	38	0
7	0	0	1	0	516	562	0	515	38	0
8	0	0	1	0	509	529	0	516	38	0
9	0	0	1	0	513	506	0	513	38	0
10	0	0	1	0	515	487	0	507	38	0
11	0	0	1	0	513	469	0	520	38	0
12	0	0	1	0	512	450	0	512	38	0
13	0	0	1	0	510	454	0	507	38	0
14	0	0	1	0	516	430	0	511	38	0
15	0	0	1	0	512	464	0	515	38	0
0	0	0	1	0	519	430	0	516	38	0
1	0	0	1	0	514	462	0	511	38	0
2	0	0	1	0	509	459	0	520	38	0
3	0	0	1	0	519	484	0	517	38	0
4	0	0	1	0	510	479	0	512	38	0
5	0	0	1	0	516	486	0	532	38	0
6	0	0	1	0	516	481	0	515	38	0
7	0	0	1	0	511	493	0	513	38	0
8	0	0	1	0	510	491	0	513	38	0
9	0	0	1	0	512	518	0	509	38	0
10	0	0	1	0	515	518	0	516	38	0
11	0	0	1	0	512	527	0	522	38	0
12	0	0	1	0	515	479	0	510	38	0
13	0	0	1	0	517	547	0	515	38	0
14	0	0	1	0	520	521	0	509	38	0
15	0	0	1	0	516	504	0	518	38	0
0	0	0	1	0	521	514	0	514	38	0
1	0	0	1	0	516	529	0	517	38	0
2	0	0	1	0	515	524	0	509	38	0
3	0	0	1	0	515	529	0	515	38	0
4	0	0	1	0	514	502	0	518	38	0
5	0	0	1	0	515	528	0	513	38	0
6	0	0	1	0	514	512	0	518	38	0
7	0	0	1	0	511	519	0	512	38	0
8	0	0	1	0	515	518	0	513	38	0
9	0	0	1	0	516	529	0	511	38	0
10	0	0	1	0	519	514	0	510	38	0
11	0	0	1	0	516	538	0	512	38	0
12	0	0	1	0	515	509	0	515	38	0
13	0	0	1	0	519	561	0	517	38	0
14	0	0	1	0	515	519	0	513	38	0
15	0	0	1	0	520	530	0	512	38	0
0	0	0	1	0	520	504	0	516	38	0
1	0	0	1	0	513	516	0	509	38	0
2	0	0	1	0	518	508	0	498	38	0
3	0	0	1	0	508	505	0	511	38	0
4	0	0	1	0	515	509	0	513	38	0
5	0	0	1	0	518	516	0	513	38	0
6	0	0	1	0	512	498	0	513	38	0
7	0	0	1	0	514	543	0	513	38	0
8	0	0	1	0	514	464	0	510	38	0
9	0	0	1	0	523	468	0	513	38	0
10	0	0	1	0	519	616	0	516	38	0
11	0	0	1	0	516	811	0	524	38	0
12	0	0	1	0	508	697	0	519	38	0
13	0	0	1	0	521	420	0	512	38	0
14	0	0	1	0	515	391	0	511	38	0
15	0	0	1	0	511	467	0	512	38	0
0	0	0	1	0	519	476	0	515	38	0
1	0	0	1	0	521	470	0	511	38	0
2	0	0	1	0	519	475	0	514	38	0
3	0	0	1	0	519	505	0	512	38	0
4	0	0	1	0	516	494	0	507	38	0
5	0	0	1	0	516	498	0	510	38	0
6	0	0	1	0	519	467	0	511	38	0
7	0	0	1	0	508	512	0	514	38	0
8	0	0	1	0	513	503	0	515	38	0
9	0	0	1	0	516	514	0	513	38	0
10	0	0	1	0	508	497	0	508	38	0
11	0	0	1	0	513	554	0	514	38	0
12	0	0	1	0	517	537	0	518	38	0
13	0	0	1	0	509	551	0	516	38	0
14	0	0	1	0	507	553	0	508	38	0
15	0	0	1	0	517	564	0	513	38	0
0	0	0	1	0	513	560	0	518	38	0
1	0	0	1	0	518	587	0	514	38	0
2	0	0	1	0	518	571	0	507	38	0
3	0	0	1	0	514	591	0	512	38	0
4	0	0	1	0	513	514	0	507	38	0
5	0	0	1	0	512	542	0	510	38	0
6	0	0	1	0	520	499	0	509	39	0
7	0	0	1	0	514	503	0	515	39	0
8	0	0	1	0	516	466	0	511	38	0
9	0	0	1	0	512	457	0	515	38	0
10	0	0	1	0	516	415	0	513	38	0
11	0	0	1	0	514	434	0	519	38	0
12	0	0	1	0	524	446	0	511	38	0
13	0	0	1	0	505	458	0	513	38	0
14	0	0	1	0	518	440	0	506	38	0
15	0	0	1	0	508	479	0	517	38	0
0	0	0	1	0	519	468	0	514	38	0
1	0	0	1	0	517	510	0	512	38	0
2	0	0	1	0	512	469	0	508	38	0
3	0	0	1	0	515	478	0	506	38	0
4	0	0	1	0	514	468	0	523	38	0
5	0	0	1	0	516	503	0	513	38	0
6	0	0	1	0	516	501	0	504	38	0
7	0	0	1	0	508	519	0	509	38	0
8	0	0	1	0	522	496	0	510	38	0
9	0	0	1	0	516	518	0	512	38	0
10	0	0	1	0	523	506	0	509	38	0
11	0	0	1	0	511	512	0	503	38	0
12	0	0	1	0	517	497	0	510	38	0
13	0	0	1	0	514	537	0	514	38	0
14	0	0	1	0	514	494	0	511	38	0
15	0	0	1	0	513	523	0	511	38	0
0	0	0	1	0	519	507	0	511	38	0
1	0	0	1	0	520	528	0	513	38	0
2	0	0	1	0	525	518	0	517	38	0
3	0	0	1	0	518	502	0	513	38	0
4	0	0	1	0	518	524	0	518	38	0
5	0	0	1	0	514	536	0	517	38	0
6	0	0	1	0	518	495	0	514	38	0
7	0	0	1	0	516	562	0	512	38	0
8	0	0	1	0	519	507	0	510	38	0
9	0	0	1	0	515	548	0	514	38	0
10	0	0	1	0	521	527	0	518	38	0
11	0	0	1	0	519	525	0	515	38	0
12	0	0	1	0	515	521	0	519	38	0
13	0	0	1	0	516	507	0	517	38	0
14	0	0	1	0	511	510	0	514	38	0
15	0	0	1	0	520	527	0	516	38	0
0	0	0	1	0	510	485	0	515	38	0
1	0	0	1	0	513	519	0	510	38	0
2	0	0	1	0	511	500	0	514	38	0
3	0	0	1	0	518	515	0	511	38	0
4	0	0	1	0	513	452	0	515	38	0
5	0	0	1	0	526	550	0	516	38	0
6	0	0	1	0	512	682	0	508	38	0
7	0	0	1	0	521	811	0	512	38	0
8	0	0	1	0	519	544	0	511	38	0
9	0	0	1	0	514	403	0	503	38	0
10	0	0	1	0	511	429	0	514	38	0
11	0	0	1	0	511	516	0	513	38	0
12	0	0	1	0	515	464	0	510	38	0
13	0	0	1	0	515	513	0	515	38	0
14	0	0	1	0	514	488	0	512	38	0
15	0	0	1	0	514	505	0	514	38	0
0	0	0	1	0	513	478	0	517	38	0
1	0	0	1	0	515	521	0	511	38	0
2	0	0	1	0	512	510	0	513	38	0
3	0	0	1	0	511	520	0	516	38	0
4	0	0	1	0	518	510	0	507	38	0
5	0	0	1	0	517	524	0	516	38	0
6	0	0	1	0	520	538	0	513	38	0
7	0	0	1	0	516	546	0	515	38	0
8	0	0	1	0	517	576	0	521	38	0
9	0	0	1	0	516	533	0	515	38	0
10	0	0	1	0	514	562	0	523	38	0
11	0	0	1	0	518	581	0	520	38	0
12	0	0	1	0	513	573	0	513	38	0
13	0	0	1	0	515	604	0	519	38	0
14	0	0	1	0	520	577	0	513	38	0
15	0	0	1	0	517	581	0	512	38	0
0	0	0	1	0	519	556	0	511	38	0
1	0	0	1	0	507	543	0	517	38	0
2	0	0	1	0	518	471	0	515	38	0
3	0	0	1	0	508	491	0	512	38	0
4	0	0	1	0	513	459	0	519	38	0
5	0	0	1	0	517	460	0	517	38	0
6	0	0	1	0	513	447	0	518	38	0
7	0	0	1	0	510	452	0	514	38	0
8	0	0	1	0	512	451	0	514	38	0
9	0	0	1	0	519	457	0	516	38	0
10	0	0	1	0	516	443	0	515	38	0
11	0	0	1	0	527	479	0	513	38	0
12	0	0	1	0	510	438	0	514	38	0
13	0	0	1	0	518	480	0	518	38	0
14	0	0	1	0	518	487	0	509	38	0
15	0	0	1	0	518	507	0	517	38	0
0	0	0	1	0	520	468	0	508	38	0
1	0	0	1	0	515	522	0	515	38	0
2	0	0	1	0	516	510	0	510	38	0
3	0	0	1	0	509	505	0	512	38	0
4	0	0	1	0	513	501	0	515	38	0
5	0	0	1	0	511	515	0	519	38	0
6	0	0	1	0	514	496	0	510	38	0
7	0	0	1	0	516	539	0	514	38	0
8	0	0	1	0	513	495	0	510	38	0
9	0	0	1	0	514	522	0	511	38	0
10	0	0	1	0	518	520	0	511	38	0
11	0	0	1	0	513	527	0	513	38	0
12	0	0	1	0	515	500	0	515	38	0
13	0	0	1	0	515	528	0	512	38	0
14	0	0	1	0	516	528	0	511	38	0
15	0	0	1	0	506	530	0	514	38	0
0	0	0	1	0	519	534	0	515	38	0
1	0	0	1	0	516	550	0	514	38	0
2	0	0	1	0	515	515	0	514	38	0
3	0	0	1	0	518	519	0	515	38	0
4	0	0	1	0	510	487	0	516	38	0
5	0	0	1	0	519	516	0	518	38	0
6	0	0	1	0	520	507	0	522	38	0
7	0	0	1	0	519	508	0	511	38	0
8	0	0	1	0	515	504	0	513	38	0
9	0	0	1	0	511	538	0	517	38	0
10	0	0	1	0	509	489	0	508	38	0
11	0	0	1	0	518	490	0	511	38	0
12	0	0	1	0	516	591	0	514	38	0
13	0	0	1	0	517	771	0	516	38	0
14	0	0	1	0	516	724	0	515	38	0
15	0	0	1	0	521	444	0	514	38	0
0	0	0	1	0	516	411	0	516	38	0
1	0	0	1	0	511	470	0	514	38	0
2	0	0	1	0	515	481	0	515	38	0
3	0	0	1	0	505	507	0	512	38	0
4	0	0	1	0	519	488	0	512	38	0
5	0	0	1	0	513	494	0	512	38	0
6	0	0	1	0	516	487	0	513	38	0
7	0	0	1	0	520	530	0	511	38	0
8	0	0	1	0	516	496	0	514	38	0
9	0	0	1	0	519	510	0	508	38	0
10	0	0	1	0	517	509	0	519	38	0
11	0	0	1	0	515	525	0	511	38	0
12	0	0	1	0	514	514	0	512	38	0
13	0	0	1	0	514	555	0	513	38	0
14	0	0	1	0	514	535	0	510	38	0
15	0	0	1	0	522	563	0	512	38	0
0	0	0	1	0	515	560	0	513	38	0
1	0	0	1	0	515	584	0	512	38	0
2	0	0	1	0	513	563	0	515	38	0
3	0	0	1	0	516	604	0	517	38	0
4	0	0	1	0	516	588	0	514	38	0
5	0	0	1	0	520	583	0	515	38	0
6	0	0	1	0	523	544	0	507	38	0
7	0	0	1	0	518	538	0	505	38	0
8	0	0	1	0	517	507	0	513	38	0
9	0	0	1	0	512	494	0	515	38	0
10	0	0	1	0	515	462	0	515	38	0
11	0	0	1	0	517	460	0	510	38	0
12	0	0	1	0	516	419	0	507	38	0
13	0	0	1	0	513	460	0	509	38	0
14	0	0	1	0	510	450	0	520	38	0
15	0	0	1	0	519	463	0	512	38	0
0	0	0	1	0	511	444	0	504	38	0
1	0	0	1	0	515	481	0	509	38	0
2	0	0	1	0	515	462	0	510	38	0
3	0	0	1	0	507	471	0	513	38	0
4	0	0	1	0	509	470	0	515	38	0
5	0	0	1	0	523	487	0	511	38	0
6	0	0	1	0	515	480	0	507	38	0
7	0	0	1	0	511	523	0	508	38	0
8	0	0	1	0	510	496	0	510	38	0
9	0	0	1	0	509	509	0	513	38	0
10	0	0	1	0	511	511	0	514	38	0
11	0	0	1	0	518	501	0	515	38	0
12	0	0	1	0	517	504	0	517	38	0
13	0	0	1	0	513	532	0	510	38	0
14	0	0	1	0	513	497	0	507	38	0
15	0	0	1	0	511	506	0	515	38	0
0	0	0	1	0	512	515	0	520	38	0
1	0	0	1	0	510	544	0	516	38	0
2	0	0	1	0	516	530	0	518	38	0
3	0	0	1	0	512	524	0	515	38	0
4	0	0	1	0	518	514	0	519	38	0
5	0	0	1	0	510	536	0	518	38	0
6	0	0	1	0	516	511	0	514	38	0
7	0	0	1	0	516	543	0	520	38	0
8	0	0	1	0	516	521	0	518	38	0
9	0	0	1	0	511	522	0	515	38	0
10	0	0	1	0	520	526	0	516	38	0
11	0	0	1	0	516	520	0	517	38	0
12	0	0	1	0	523	497	0	517	38	0
13	0	0	1	0	517	515	0	512	38	0
14	0	0	1	0	516	496	0	518	38	0
15	0	0	1	0	512	519	0	517	38	0
0	0	0	1	0	510	523	0	516	38	0
1	0	0	1	0	518	477	0	520	38	0
2	0	0	1	0	512	456	0	523	38	0
3	0	0	1	0	513	639	0	515	38	0
4	0	0	1	0	512	798	0	517	38	0
5	0	0	1	0	508	767	0	510	38	0
6	0	0	1	0	518	441	0	508	38	0
7	0	0	1	0	513	409	0	514	38	0
8	0	0	1	0	522	444	0	520	38	0
9	0	0	1	0	512	495	0	518	38	0
10	0	0	1	0	520	473	0	511	38	0
11	0	0	1	0	517	483	0	513	38	0
12	0	0	1	0	515	488	0	509	38	0
13	0	0	1	0	508	520	0	511	38	0
14	0	0	1	0	513	502	0	510	38	0
15	0	0	1	0	517	536	0	519	38	0
0	0	0	1	0	516	514	0	517	38	0
1	0	0	1	0	513	510	0	514	38	0
2	0	0	1	0	512	502	0	510	38	0
3	0	0	1	0	515	535	0	519	38	0
4	0	0	1	0	516	527	0	511	38	0
5	0	0	1	0	513	540	0	519	38	0
6	0	0	1	0	523	566	0	521	38	0
7	0	0	1	0	514	578	0	516	38	0
8	0	0	1	0	520	569	0	511	38	0
9	0	0	1	0	510	600	0	528	38	0
10	0	0	1	0	519	566	0	515	38	0
11	0	0	1	0	522	590	0	516	38	0
12	0	0	1	0	507	580	0	518	38	0
13	0	0	1	0	522	587	0	523	38	0
14	0	0	1	0	514	547	0	516	38	0
15	0	0	1	0	523	511	0	527	38	0
0	0	0	1	0	516	473	0	517	38	0
1	0	0	1	0	511	488	0	514	38	0
2	0	0	1	0	512	419	0	515	38	0
3	0	0	1	0	511	449	0	516	38	0
4	0	0	1	0	517	434	0	513	38	0
5	0	0	1	0	517	460	0	513	38	0
6	0	0	1	0	511	456	0	518	38	0
7	0	0	1	0	512	470	0	518	38	0
8	0	0	1	0	515	468	0	515	38	0
9	0	0	1	0	512	506	0	512	38	0
10	0	0	1	0	513	453	0	518	38	0
11	0	0	1	0	508	499	0	518	38	0
12	0	0	1	0	523	486	0	514	38	0
13	0	0	1	0	513	496	0	515	38	0
14	0	0	1	0	516	483	0	515	38	0
15	0	0	1	0	521	498	0	516	38	0
0	0	0	1	0	513	489	0	512	38	0
1	0	0	1	0	511	510	0	513	38	0
2	0	0	1	0	509	516	0	514	38	0
3	0	0	1	0	512	517	0	511	38	0
4	0	0	1	0	526	513	0	507	38	0
5	0	0	1	0	518	513	0	506	38	0
6	0	0	1	0	516	508	0	515	38	0
7	0	0	1	0	513	521	0	515	38	0
8	0	0	1	0	516	504	0	516	38	0
9	0	0	1	0	515	521	0	511	38	0
10	0	0	1	0	508	515	0	514	38	0
11	0	0	1	0	510	546	0	510	38	0
12	0	0	1	0	517	531	0	512	38	0
13	0	0	1	0	519	526	0	516	38	0
14	0	0	1	0	513	518	0	513	38	0
15	0	0	1	0	515	551	0	519	38	0
0	0	0	1	0	512	505	0	517	38	0
1	0	0	1	0	517	497	0	513	38	0
2	0	0	1	0	522	501	0	517	38	0
3	0	0	1	0	519	533	0	512	38	0
4	0	0	1	0	511	504	0	513	38	0
5	0	0	1	0	520	517	0	518	38	0
6	0	0	1	0	515	517	0	513	38	0
7	0	0	1	0	518	510	0	516	38	0
8	0	0	1	0	518	441	0	513	38	0
9	0	0	1	0	515	584	0	505	38	0
10	0	0	1	0	516	797	0	508	38	0
11	0	0	1	0	518	776	0	514	38	0
12	0	0	1	0	519	478	0	515	38	0
13	0	0	1	0	510	413	0	509	38	0
14	0	0	1	0	528	440	0	511	38	0
15	0	0	1	0	518	497	0	519	38	0
0	0	0	1	0	513	454	0	509	38	0
1	0	0	1	0	518	460	0	519	38	0
2	0	0	1	0	510	516	0	515	38	0
3	0	0	1	0	510	489	0	512	38	0
4	0	0	1	0	523	518	0	515	38	0
5	0	0	1	0	510	517	0	519	38	0
6	0	0	1	0	520	505	0	516	38	0
7	0	0	1	0	512	518	0	516	38	0
8	0	0	1	0	519	507	0	512	38	0
9	0	0	1	0	511	527	0	512	38	0
10	0	0	1	0	519	523	0	517	38	0
11	0	0	1	0	516	543	0	517	38	0
12	0	0	1	0	516	540	0	510	38	0
13	0	0	1	0	511	563	0	514	38	0
14	0	0	1	0	515	576	0	513	38	0
15	0	0	1	0	517	580	0	515	38	0
0	0	0	1	0	513	591	0	513	38	0
1	0	0	1	0	517	605	0	513	38	0
2	0	0	1	0	515	579	0	519	38	0
3	0	0	1	0	519	566	0	514	38	0
4	0	0	1	0	519	538	0	516	38	0
5	0	0	1	0	511	510	0	525	38	0
6	0	0	1	0	522	494	0	516	38	0
7	0	0	1	0	522	470	0	517	38	0
8	0	0	1	0	514	449	0	512	38	0
9	0	0	1	0	511	467	0	518	38	0
10	0	0	1	0	509	443	0	520	38	0
11	0	0	1	0	513	441	0	519	38	0
12	0	0	1	0	514	428	0	516	38	0
13	0	0	1	0	519	463	0	518	38	0
14	0	0	1	0	516	465	0	515	38	0
15	0	0	1	0	516	480	0	511	38	0
0	0	0	1	0	518	473	0	516	38	0
1	0	0	1	0	516	481	0	519	38	0
2	0	0	1	0	513	484	0	524	38	0
3	0	0	1	0	519	505	0	517	38	0
4	0	0	1	0	518	481	0	518	38	0
5	0	0	1	0	512	519	0	511	38	0
6	0	0	1	0	516	500	0	510	38	0
7	0	0	1	0	518	497	0	517	38	0
8	0	0	1	0	514	527	0	511	38	0
9	0	0	1	0	510	513	0	510	38	0
10	0	0	1	0	510	511	0	508	38	0
11	0	0	1	0	519	545	0	514	38	0
12	0	0	1	0	518	506	0	514	38	0
13	0	0	1	0	515	524	0	511	38	0
14	0	0	1	0	515	524	0	513	38	0
15	0	0	1	0	515	551	0	512	38	0
0	0	0	1	0	512	528	0	509	38	0
1	0	0	1	0	517	527	0	522	38	0
2	0	0	1	0	511	528	0	506	38	0
3	0	0	1	0	519	524	0	513	38	0
4	0	0	1	0	512	495	0	515	38	0
5	0	0	1	0	516	516	0	513	38	0
6	0	0	1	0	518	519	0	506	38	0
7	0	0	1	0	513	530	0	509	39	0
8	0	0	1	0	512	526	0	512	38	0
9	0	0	1	0	517	521	0	515	39	0
10	0	0	1	0	516	506	0	526	38	0
11	0	0	1	0	511	499	0	514	39	0
12	0	0	1	0	516	459	0	517	38	0
13	0	0	1	0	515	615	0	511	38	0
14	0	0	1	0	517	768	0	507	38	0
15	0	0	1	0	515	754	0	509	38	0
0	0	0	1	0	510	479	0	506	38	0
1	0	0	1	0	519	417	0	514	38	0
2	0	0	1	0	511	455	0	515	38	0
3	0	0	1	0	518	511	0	511	38	0
4	0	0	1	0	515	497	0	512	38	0
5	0	0	1	0	513	484	0	511	38	0
6	0	0	1	0	513	493	0	511	38	0
7	0	0	1	0	514	491	0	514	38	0
8	0	0	1	0	519	507	0	516	38	0
9	0	0	1	0	504	524	0	527	39	0
10	0	0	1	0	518	492	0	518	38	0
11	0	0	1	0	510	544	0	516	38	0
12	0	0	1	0	518	523	0	513	38	0
13	0	0	1	0	517	524	0	513	38	0
14	0	0	1	0	520	551	0	512	38	0
15	0	0	1	0	513	530	0	510	38	0
0	0	0	1	0	517	539	0	513	38	0
1	0	0	1	0	515	559	0	510	38	0
2	0	0	1	0	516	557	0	514	38	0
3	0	0	1	0	515	624	0	510	38	0
4	0	0	1	0	509	565	0	509	38	0
5	0	0	1	0	522	584	0	508	38	0
6	0	0	1	0	515	597	0	513	38	0
7	0	0	1	0	509	535	0	511	38	0
8	0	0	1	0	510	540	0	514	38	0
9	0	0	1	0	518	506	0	515	38	0
10	0	0	1	0	511	474	0	515	38	0
11	0	0	1	0	512	478	0	520	38	0
12	0	0	1	0	519	456	0	515	38	0
13	0	0	1	0	512	449	0	515	38	0
14	0	0	1	0	513	444	0	515	38	0
15	0	0	1	0	516	458	0	520	38	0
0	0	0	1	0	523	441	0	517	38	0
1	0	0	1	0	514	467	0	515	38	0
2	0	0	1	0	516	459	0	514	38	0
3	0	0	1	0	519	472	0	514	38	0
4	0	0	1	0	505	471	0	513	38	0
5	0	0	1	0	523	473	0	516	38	0
6	0	0	1	0	517	486	0	513	38	0
7	0	0	1	0	513	520	0	513	38	0
8	0	0	1	0	519	503	0	513	38	0
9	0	0	1	0	511	502	0	513	38	0
10	0	0	1	0	509	514	0	514	38	0
11	0	0	1	0	515	517	0	517	38	0
12	0	0	1	0	524	477	0	514	38	0
13	0	0	1	0	510	519	0	517	38	0
14	0	0	1	0	523	511	0	513	38	0
15	0	0	1	0	515	511	0	517	38	0
0	0	0	1	0	514	527	0	511	38	0
1	0	0	1	0	521	527	0	519	38	0
2	0	0	1	0	515	519	0	518	38	0
3	0	0	1	0	523	529	0	516	38	0
4	0	0	1	0	517	527	0	512	38	0
5	0	0	1	0	516	524	0	512	38	0
6	0	0	1	0	517	541	0	514	38	0
7	0	0	1	0	517	519	0	518	38	0
8	0	0	1	0	511	513	0	512	38	0
9	0	0	1	0	513	508	0	513	38	0
10	0	0	1	0	515	500	0	518	38	0
11	0	0	1	0	510	496	0	513	38	0
12	0	0	1	0	511	505	0	515	38	0
13	0	0	1	0	516	526	0	513	38	0
14	0	0	1	0	521	524	0	513	38	0
15	0	0	1	0	513	527	0	510	38	0
0	0	0	1	0	511	464	0	509	38	0
1	0	0	1	0	522	536	0	514	38	0
2	0	0	1	0	513	689	0	515	38	0
3	0	0	1	0	516	854	0	514	38	0
4	0	0	1	0	513	592	0	511	38	0
5	0	0	1	0	515	402	0	517	38	0
6	0	0	1	0	514	406	0	511	38	0
7	0	0	1	0	516	493	0	516	38	0
8	0	0	1	0	509	496	0	513	38	0
9	0	0	1	0	519	492	0	511	38	0
10	0	0	1	0	519	490	0	510	38	0
11	0	0	1	0	518	495	0	518	38	0
12	0	0	1	0	516	509	0	518	38	0
13	0	0	1	0	526	500	0	513	38	0
14	0	0	1	0	520	516	0	513	38	0
15	0	0	1	0	511	517	0	517	38	0
0	0	0	1	0	519	521	0	510	38	0
1	0	0	1	0	518	513	0	511	38	0
2	0	0	1	0	510	540	0	510	38	0
3	0	0	1	0	519	519	0	507	38	0
4	0	0	1	0	519	532	0	505	38	0
5	0	0	1	0	515	571	0	512	38	0
6	0	0	1	0	522	547	0	515	38	0
7	0	0	1	0	517	555	0	511	38	0
8	0	0	1	0	518	563	0	515	38	0
9	0	0	1	0	518	587	0	511	38	0
10	0	0	1	0	510	604	0	517	38	0
11	0	0	1	0	510	563	0	510	38	0
12	0	0	1	0	513	544	0	515	38	0
13	0	0	1	0	516	510	0	512	38	0
14	0	0	1	0	518	506	0	511	38	0
15	0	0	1	0	514	476	0	509	38	0
0	0	0	1	0	512	454	0	516	38	0
1	0	0	1	0	521	440	0	511	38	0
2	0	0	1	0	516	417	0	514	38	0
3	0	0	1	0	513	454	0	508	39	0
4	0	0	1	0	515	455	0	509	38	0
5	0	0	1	0	514	471	0	504	39	0
6	0	0	1	0	518	466	0	508	39	0
7	0	0	1	0	510	474	0	517	38	0
8	0	0	1	0	511	483	0	517	38	0
9	0	0	1	0	512	472	0	521	38	0
10	0	0	1	0	514	480	0	519	38	0
11	0	0	1	0	514	495	0	513	38	0
12	0	0	1	0	519	478	0	509	38	0
13	0	0	1	0	510	509	0	512	38	0
14	0	0	1	0	520	505	0	517	38	0
15	0	0	1	0	513	513	0	518	38	0
0	0	0	1	0	518	519	0	518	38	0
1	0	0	1	0	507	521	0	515	38	0
2	0	0	1	0	521	507	0	511	38	0
3	0	0	1	0	516	520	0	509	38	0
4	0	0	1	0	514	504	0	509	38	0
5	0	0	1	0	514	506	0	507	38	0
6	0	0	1	0	511	507	0	519	38	0
7	0	0	1	0	517	531	0	511	38	0
8	0	0	1	0	521	547	0	512	38	0
9	0	0	1	0	516	546	0	510	38	0
10	0	0	1	0	516	532	0	514	38	0
11	0	0	1	0	513	521	0	515	38	0
12	0	0	1	0	514	526	0	514	38	0
13	0	0	1	0	521	523	0	516	38	0
14	0	0	1	0	513	527	0	516	38	0
15	0	0	1	0	518	504	0	513	38	0
0	0	0	1	0	507	513	0	512	38	0
1	0	0	1	0	512	524	0	512	39	0
2	0	0	1	0	513	506	0	515	38	0
3	0	0	1	0	511	511	0	510	39	0
4	0	0	1	0	517	517	0	517	38	0
5	0	0	1	0	519	525	0	511	39	0
6	0	0	1	0	516	514	0	513	38	0
7	0	0	1	0	515	472	0	516	38	0
8	0	0	1	0	515	470	0	512	38	0
9	0	0	1	0	521	625	0	516	38	0
10	0	0	1	0	516	810	0	511	38	0
11	0	0	1	0	519	743	0	506	38	0
12	0	0	1	0	510	451	0	510	38	0
13	0	0	1	0	511	403	0	508	38	0
14	0	0	1	0	510	465	0	510	38	0
15	0	0	1	0	510	485	0	515	38	0
0	0	0	1	0	511	476	0	506	38	0
1	0	0	1	0	516	487	0	515	38	0
2	0	0	1	0	521	498	0	514	38	0
3	0	0	1	0	518	513	0	514	38	0
4	0	0	1	0	516	494	0	514	38	0
5	0	0	1	0	508	499	0	508	38	0
6	0	0	1	0	517	518	0	506	38	0
7	0	0	1	0	506	516	0	513	38	0
8	0	0	1	0	514	534	0	512	38	0
9	0	0	1	0	517	521	0	509	38	0
10	0	0	1	0	515	525	0	511	38	0
11	0	0	1	0	519	548	0	518	38	0
12	0	0	1	0	517	558	0	510	38	0
13	0	0	1	0	520	556	0	504	38	0
14	0	0	1	0	518	598	0	508	38	0
15	0	0	1	0	515	572	0	506	38	0
0	0	0	1	0	510	589	0	513	38	0
1	0	0	1	0	511	601	0	509	38	0
2	0	0	1	0	518	606	0	516	38	0
3	0	0	1	0	514	553	0	512	38	0
4	0	0	1	0	517	554	0	515	38	0
5	0	0	1	0	512	507	0	503	38	0
6	0	0	1	0	516	471	0	511	38	0
7	0	0	1	0	518	483	0	512	38	0
8	0	0	1	0	511	441	0	506	38	0
9	0	0	1	0	520	474	0	515	38	0
10	0	0	1	0	510	445	0	515	38	0
11	0	0	1	0	519	459	0	518	38	0
12	0	0	1	0	513	446	0	509	38	0
13	0	0	1	0	518	467	0	511	38	0
14	0	0	1	0	518	468	0	513	38	0
15	0	0	1	0	512	477	0	515	38	0
0	0	0	1	0	517	481	0	515	38	0
1	0	0	1	0	514	475	0	516	38	0
2	0	0	1	0	512	472	0	518	38	0
3	0	0	1	0	517	500	0	511	38	0
4	0	0	1	0	517	479	0	512	38	0
5	0	0	1	0	514	493	0	511	38	0
6	0	0	1	0	512	531	0	516	38	0
7	0	0	1	0	522	522	0	511	38	0
8	0	0	1	0	513	495	0	509	38	0
9	0	0	1	0	516	519	0	511	38	0
10	0	0	1	0	516	505	0	514	38	0
11	0	0	1	0	518	521	0	512	38	0
12	0	0	1	0	513	507	0	516	38	0
13	0	0	1	0	515	507	0	512	38	0
14	0	0	1	0	522	542	0	512	38	0
15	0	0	1	0	510	516	0	513	38	0
0	0	0	1	0	513	521	0	516	38	0
1	0	0	1	0	518	515	0	512	38	0
2	0	0	1	0	513	535	0	520	38	0
3	0	0	1	0	517	528	0	519	38	0
4	0	0	1	0	508	524	0	519	38	0
5	0	0	1	0	520	515	0	518	38	0
6	0	0	1	0	515	532	0	519	38	0
7	0	0	1	0	520	532	0	519	38	0
8	0	0	1	0	513	538	0	514	38	0
9	0	0	1	0	520	500	0	517	38	0
10	0	0	1	0	517	527	0	518	38	0
11	0	0	1	0	516	512	0	518	39	0
12	0	0	1	0	515	499	0	520	38	0
13	0	0	1	0	513	526	0	521	38	0
14	0	0	1	0	513	519	0	512	38	0
15	0	0	1	0	513	514	0	513	38	0
0	0	0	1	0	526	512	0	515	38	0
1	0	0	1	0	516	506	0	512	38	0
2	0	0	1	0	518	468	0	515	38	0
3	0	0	1	0	512	566	0	515	38	0
4	0	0	1	0	519	755	0	513	38	0
5	0	0	1	0	520	795	0	506	38	0
6	0	0	1	0	518	529	0	512	38	0
7	0	0	1	0	519	407	0	517	38	0
8	0	0	1	0	518	448	0	506	38	0
9	0	0	1	0	515	485	0	511	38	0
10	0	0	1	0	515	497	0	510	38	0
11	0	0	1	0	519	486	0	512	38	0
12	0	0	1	0	518	479	0	514	38	0
13	0	0	1	0	519	494	0	517	38	0
14	0	0	1	0	508	497	0	514	38	0
15	0	0	1	0	516	507	0	513	38	0
0	0	0	1	0	514	512	0	515	38	0
1	0	0	1	0	518	517	0	509	38	0
2	0	0	1	0	515	515	0	505	38	0
3	0	0	1	0	527	504	0	516	38	0
4	0	0	1	0	524	558	0	503	38	0
5	0	0	1	0	515	529	0	508	38	0
6	0	0	1	0	513	531	0	510	38	0
7	0	0	1	0	510	563	0	517	38	0
8	0	0	1	0	517	578	0	510	38	0
9	0	0	1	0	517	571	0	512	38	0
10	0	0	1	0	515	591	0	519	38	0
11	0	0	1	0	515	586	0	514	38	0
12	0	0	1	0	514	588	0	511	38	0
13	0	0	1	0	521	572	0	509	38	0
14	0	0	1	0	525	568	0	508	38	0
15	0	0	1	0	514	528	0	512	38	0
0	0	0	1	0	514	470	0	514	38	0
1	0	0	1	0	519	465	0	515	38	0
2	0	0	1	0	519	446	0	512	38	0
3	0	0	1	0	511	443	0	509	38	0
4	0	0	1	0	520	457	0	518	38	0
5	0	0	1	0	516	464	0	519	38	0
6	0	0	1	0	507	465	0	527	38	0
7	0	0	1	0	518	442	0	518	38	0
8	0	0	1	0	515	453	0	514	38	0
9	0	0	1	0	519	505	0	510	38	0
10	0	0	1	0	514	467	0	513	38	0
11	0	0	1	0	511	474	0	515	38	0
12	0	0	1	0	515	484	0	515	38	0
13	0	0	1	0	519	496	0	504	38	0
14	0	0	1	0	511	478	0	510	38	0
15	0	0	1	0	513	507	0	518	38	0
0	0	0	1	0	515	520	0	515	38	0
1	0	0	1	0	514	502	0	511	38	0
2	0	0	1	0	517	530	0	514	38	0
3	0	0	1	0	515	495	0	512	38	0
4	0	0	1	0	511	527	0	512	38	0
5	0	0	1	0	520	498	0	514	38	0
6	0	0	1	0	515	492	0	507	38	0
7	0	0	1	0	521	507	0	512	38	0
8	0	0	1	0	514	519	0	510	38	0
9	0	0	1	0	519	536	0	511	38	0
10	0	0	1	0	526	510	0	508	38	0
11	0	0	1	0	518	533	0	510	38	0
12	0	0	1	0	515	514	0	514	38	0
13	0	0	1	0	516	521	0	516	38	0
14	0	0	1	0	521	543	0	507	38	0
15	0	0	1	0	516	518	0	509	38	0
0	0	0	1	0	516	517	0	508	38	0
1	0	0	1	0	519	511	0	507	38	0
2	0	0	1	0	517	515	0	515	38	0
3	0	0	1	0	518	527	0	514	38	0
4	0	0	1	0	515	543	0	516	38	0
5	0	0	1	0	515	514	0	515	38	0
6	0	0	1	0	521	499	0	517	38	0
7	0	0	1	0	515	515	0	518	38	0
8	0	0	1	0	512	503	0	510	38	0
9	0	0	1	0	514	467	0	505	38	0
10	0	0	1	0	511	501	0	506	38	0
11	0	0	1	0	513	639	0	529	38	0
12	0	0	1	0	513	831	0	515	38	0
13	0	0	1	0	514	668	0	530	38	0
14	0	0	1	0	516	420	0	515	38	0
15	0	0	1	0	514	425	0	508	38	0
0	0	0	1	0	515	509	0	512	38	0
1	0	0	1	0	513	461	0	510	38	0
2	0	0	1	0	527	493	0	518	38	0
3	0	0	1	0	511	486	0	513	38	0
4	0	0	1	0	519	482	0	516	38	0
5	0	0	1	0	517	526	0	512	38	0
6	0	0	1	0	520	501	0	511	38	0
7	0	0	1	0	517	528	0	513	38	0
8	0	0	1	0	518	508	0	516	38	0
9	0	0	1	0	515	518	0	514	38	0
10	0	0	1	0	511	516	0	509	38	0
11	0	0	1	0	515	520	0	512	38	0
12	0	0	1	0	510	553	0	512	38	0
13	0	0	1	0	514	543	0	517	38	0
14	0	0	1	0	519	545	0	519	38	0
15	0	0	1	0	514	565	0	512	38	0
0	0	0	1	0	517	601	0	514	38	0
1	0	0	1	0	508	579	0	519	38	0
2	0	0	1	0	516	590	0	515	38	0
3	0	0	1	0	516	582	0	509	38	0
4	0	0	1	0	516	591	0	517	38	0
5	0	0	1	0	514	560	0	523	38	0
6	0	0	1	0	518	532	0	514	38	0
7	0	0	1	0	511	512	0	508	38	0
8	0	0	1	0	519	461	0	516	38	0
9	0	0	1	0	519	457	0	516	38	0
10	0	0	1	0	510	462	0	513	38	0
11	0	0	1	0	519	446	0	515	38	0
12	0	0	1	0	518	443	0	512	38	0
13	0	0	1	0	515	447	0	514	38	0
14	0	0	1	0	517	453	0	513	38	0
15	0	0	1	0	514	455	0	509	38	0
0	0	0	1	0	526	460	0	512	38	0
1	0	0	1	0	513	475	0	515	38	0
2	0	0	1	0	516	480	0	518	38	0
3	0	0	1	0	518	463	0	511	38	0
4	0	0	1	0	519	501	0	510	38	0
5	0	0	1	0	520	496	0	513	38	0
6	0	0	1	0	514	503	0	509	38	0
7	0	0	1	0	511	489	0	522	38	0
8	0	0	1	0	521	508	0	515	38	0
9	0	0	1	0	516	489	0	517	38	0
10	0	0	1	0	515	508	0	520	38	0
11	0	0	1	0	511	521	0	513	38	0
12	0	0	1	0	521	527	0	516	38	0
13	0	0	1	0	514	507	0	515	38	0
14	0	0	1	0	517	514	0	512	38	0
15	0	0	1	0	517	500	0	517	38	0
0	0	0	1	0	522	550	0	519	38	0
1	0	0	1	0	519	512	0	512	38	0
2	0	0	1	0	512	508	0	519	38	0
3	0	0	1	0	519	538	0	517	38	0
4	0	0	1	0	516	535	0	518	38	0
5	0	0	1	0	518	509	0	517	38	0
6	0	0	1	0	519	522	0	511	38	0
7	0	0	1	0	516	535	0	517	38	0
8	0	0	1	0	518	541	0	513	38	0
9	0	0	1	0	518	519	0	510	38	0
10	0	0	1	0	510	510	0	511	38	0
11	0	0	1	0	518	527	0	511	38	0
12	0	0	1	0	517	500	0	514	38	0
13	0	0	1	0	511	497	0	510	38	0
14	0	0	1	0	515	502	0	514	38	0
15	0	0	1	0	515	499	0	513	38	0
0	0	0	1	0	520	510	0	517	38	0
1	0	0	1	0	513	504	0	511	38	0
2	0	0	1	0	520	460	0	513	38	0
3	0	0	1	0	517	509	0	515	38	0
4	0	0	1	0	512	687	0	518	38	0
5	0	0	1	0	513	823	0	515	38	0
6	0	0	1	0	516	668	0	516	38	0
7	0	0	1	0	511	406	0	514	38	0
8	0	0	1	0	516	423	0	513	38	0
9	0	0	1	0	508	454	0	515	38	0
10	0	0	1	0	507	495	0	518	38	0
11	0	0	1	0	515	493	0	518	38	0
12	0	0	1	0	523	499	0	511	38	0
13	0	0	1	0	513	475	0	514	38	0
14	0	0	1	0	512	525	0	516	38	0
15	0	0	1	0	521	476	0	514	38	0
0	0	0	1	0	515	511	0	514	38	0
1	0	0	1	0	512	523	0	521	38	0
2	0	0	1	0	518	521	0	515	38	0
3	0	0	1	0	519	497	0	512	38	0
4	0	0	1	0	513	536	0	521	38	0
5	0	0	1	0	520	540	0	511	38	0
6	0	0	1	0	512	562	0	513	38	0
7	0	0	1	0	517	531	0	512	38	0
8	0	0	1	0	511	579	0	516	38	0
9	0	0	1	0	513	584	0	511	38	0
10	0	0	1	0	514	584	0	515	38	0
11	0	0	1	0	518	597	0	517	38	0
12	0	0	1	0	516	587	0	516	38	0
13	0	0	1	0	512	575	0	518	38	0
14	0	0	1	0	521	548	0	515	38	0
15	0	0	1	0	519	516	0	516	38	0
0	0	0	1	0	515	515	0	508	38	0
1	0	0	1	0	513	482	0	514	38	0
2	0	0	1	0	518	464	0	512	38	0
3	0	0	1	0	523	443	0	513	38	0
4	0	0	1	0	515	472	0	516	38	0
5	0	0	1	0	516	448	0	507	38	0
6	0	0	1	0	519	438	0	512	38	0
7	0	0	1	0	518	447	0	514	38	0
8	0	0	1	0	523	454	0	512	38	0
9	0	0	1	0	513	474	0	512	38	0
10	0	0	1	0	521	488	0	515	38	0
11	0	0	1	0	519	457	0	511	38	0
12	0	0	1	0	516	500	0	510	38	0
13	0	0	1	0	517	476	0	502	38	0
14	0	0	1	0	518	502	0	507	38	0
15	0	0	1	0	512	504	0	510	38	0
0	0	0	1	0	515	499	0	512	38	0
1	0	0	1	0	508	508	0	512	38	0
2	0	0	1	0	515	513	0	508	38	0
3	0	0	1	0	516	511	0	509	38	0
4	0	0	1	0	519	510	0	514	38	0
5	0	0	1	0	512	494	0	512	38	0
6	0	0	1	0	519	528	0	516	38	0
7	0	0	1	0	519	509	0	513	38	0
8	0	0	1	0	522	518	0	506	38	0
9	0	0	1	0	516	484	0	508	38	0
10	0	0	1	0	505	526	0	515	38	0
11	0	0	1	0	517	497	0	513	38	0
12	0	0	1	0	521	535	0	509	38	0
13	0	0	1	0	517	526	0	517	38	0
14	0	0	1	0	511	511	0	514	38	0
15	0	0	1	0	519	515	0	518	39	0
0	0	0	1	0	519	530	0	516	38	0
1	0	0	1	0	513	507	0	506	38	0
2	0	0	1	0	516	531	0	507	38	0
3	0	0	1	0	516	519	0	516	38	0
4	0	0	1	0	518	503	0	512	38	0
5	0	0	1	0	515	487	0	510	38	0
6	0	0	1	0	517	500	0	516	38	0
7	0	0	1	0	521	525	0	514	38	0
8	0	0	1	0	505	512	0	517	38	0
9	0	0	1	0	512	500	0	514	38	0
10	0	0	1	0	517	511	0	516	38	0
11	0	0	1	0	516	508	0	506	38	0
12	0	0	1	0	517	449	0	514	38	0
13	0	0	1	0	516	431	0	514	38	0
14	0	0	1	0	518	635	0	519	38	0
15	0	0	1	0	513	837	0	515	38	0
0	0	0	1	0	516	715	0	515	38	0
1	0	0	1	0	513	422	0	515	38	0
2	0	0	1	0	523	395	0	520	39	0
3	0	0	1	0	515	435	0	517	38	0
4	0	0	1	0	509	474	0	513	38	0
5	0	0	1	0	512	477	0	517	38	0
6	0	0	1	0	517	477	0	515	38	0
7	0	0	1	0	512	484	0	519	38	0
8	0	0	1	0	513	510	0	519	38	0
9	0	0	1	0	519	458	0	513	38	0
10	0	0	1	0	519	501	0	513	38	0
11	0	0	1	0	518	491	0	508	38	0
12	0	0	1	0	514	489	0	515	38	0
13	0	0	1	0	511	504	0	521	38	0
14	0	0	1	0	517	527	0	514	38	0
15	0	0	1	0	510	530	0	518	38	0
0	0	0	1	0	518	587	0	510	38	0
1	0	0	1	0	514	525	0	507	38	0
2	0	0	1	0	515	531	0	515	38	0
3	0	0	1	0	517	587	0	514	38	0
4	0	0	1	0	516	600	0	515	38	0
5	0	0	1	0	514	598	0	510	38	0
6	0	0	1	0	512	624	0	517	38	0
7	0	0	1	0	515	532	0	514	38	0
8	0	0	1	0	515	551	0	512	38	0
9	0	0	1	0	519	506	0	517	38	0
10	0	0	1	0	510	478	0	514	38	0
11	0	0	1	0	516	482	0	516	38	0
12	0	0	1	0	511	471	0	510	38	0
13	0	0	1	0	518	434	0	515	38	0
14	0	0	1	0	515	416	0	512	38	0
15	0	0	1	0	519	392	0	511	38	0
0	0	0	1	0	516	442	0	519	38	0
1	0	0	1	0	511	418	0	513	38	0
2	0	0	1	0	512	473	0	522	38	0
3	0	0	1	0	515	449	0	514	38	0
4	0	0	1	0	517	448	0	509	38	0
5	0	0	1	0	515	470	0	511	38	0
6	0	0	1	0	513	502	0	508	38	0
7	0	0	1	0	514	457	0	512	38	0
8	0	0	1	0	520	511	0	514	38	0
9	0	0	1	0	515	471	0	513	38	0
10	0	0	1	0	517	553	0	515	38	0
11	0	0	1	0	520	519	0	513	38	0
12	0	0	1	0	512	514	0	508	38	0
13	0	0	1	0	512	503	0	511	38	0
14	0	0	1	0	513	530	0	517	38	0
15	0	0	1	0	515	505	0	522	38	0
0	0	0	1	0	517	525	0	510	38	0
1	0	0	1	0	519	514	0	518	38	0
2	0	0	1	0	515	561	0	510	38	0
3	0	0	1	0	515	564	0	513	38	0
4	0	0	1	0	519	517	0	507	38	0
5	0	0	1	0	517	549	0	510	38	0
6	0	0	1	0	516	540	0	506	38	0
7	0	0	1	0	512	493	0	517	38	0
8	0	0	1	0	519	542	0	513	38	0
9	0	0	1	0	513	552	0	511	38	0
10	0	0	1	0	505	536	0	513	38	0
11	0	0	1	0	511	563	0	512	38	0
12	0	0	1	0	518	535	0	515	38	0
13	0	0	1	0	519	541	0	512	38	0
14	0	0	1	0	517	532	0	510	38	0
15	0	0	1	0	516	540	0	516	38	0
0	0	0	1	0	512	524	0	517	38	0
1	0	0	1	0	515	550	0	518	38	0
2	0	0	1	0	518	523	0	515	38	0
3	0	0	1	0	515	487	0	520	38	0
4	0	0	1	0	518	533	0	520	38	0
5	0	0	1	0	521	498	0	519	38	0
6	0	0	1	0	513	536	0	518	38	0
7	0	0	1	0	507	550	0	517	38	0
8	0	0	1	0	517	504	0	515	38	0
9	0	0	1	0	517	507	0	513	38	0
10	0	0	1	0	511	476	0	518	38	0
11	0	0	1	0	517	603	0	517	38	0
12	0	0	1	0	518	822	0	512	38	0
13	0	0	1	0	513	771	0	519	38	0
14	0	0	1	0	516	498	0	514	38	0
15	0	0	1	0	515	363	0	516	38	0
0	0	0	1	0	508	428	0	513	38	0
1	0	0	1	0	513	510	0	510	38	0
2	0	0	1	0	510	512	0	516	38	0
