nSeq	I1	I2	O1	O2	A1	A2	A3	A4	A5	A6
0	0	0	0	0	519	537	0	354	39	6    
1	0	0	0	0	509	554	0	1018	39	6
2	0	0	0	0	518	525	0	339	39	6
3	0	0	0	0	504	509	0	831	39	6
4	0	0	1	0	520	494	0	295	38	6
5	0	0	1	0	509	494	0	696	39	6
6	0	0	1	0	526	497	0	272	39	6
7	0	0	1	0	507	525	0	551	39	6
8	0	0	1	0	518	505	0	267	38	6
9	0	0	1	0	508	456	0	393	39	6
10	0	0	1	0	517	483	0	280	39	6
11	0	0	1	0	508	503	0	420	39	6
12	0	0	1	0	527	439	0	319	38	6
13	0	0	1	0	512	529	0	488	39	6
14	0	0	1	0	529	502	0	354	39	6
15	0	0	1	0	510	507	0	553	39	6
0	0	0	1	0	526	510	0	381	38	6
1	0	0	1	0	504	453	0	569	39	6
2	0	0	1	0	518	504	0	389	39	6
3	0	0	1	0	508	524	0	697	39	6
4	0	0	1	0	521	512	0	398	38	6
5	0	0	1	0	511	522	0	608	39	6
6	0	0	1	0	515	499	0	392	39	6
7	0	0	1	0	507	482	0	628	39	6
8	0	0	1	0	523	510	0	400	38	6
9	0	0	1	0	505	518	0	805	39	6
10	0	0	1	0	515	521	0	394	39	6
11	0	0	1	0	505	496	0	796	39	6
12	0	0	1	0	517	527	0	380	38	6
13	0	0	1	0	505	523	0	705	39	6
14	0	0	1	0	516	502	0	357	39	6
15	0	0	1	0	509	492	0	764	39	6
0	0	0	1	0	519	506	0	352	38	6
1	0	0	1	0	507	483	0	571	39	6
2	0	0	1	0	526	536	0	354	39	6
3	0	0	1	0	511	480	0	604	39	6
4	0	0	1	0	509	510	0	334	38	6
5	0	0	1	0	501	494	0	752	39	6
6	0	0	1	0	521	591	0	336	37	6
7	0	0	1	0	507	573	0	1018	39	6
8	0	0	1	0	515	542	0	429	39	6
9	0	0	1	0	508	432	0	1018	38	6
10	0	0	1	0	521	476	0	82	39	6
11	0	0	1	0	509	502	0	1018	38	6
12	0	0	1	0	519	527	0	0	39	6
13	0	0	1	0	508	487	0	1018	38	6
14	0	0	1	0	517	528	0	0	38	6
15	0	0	1	0	512	543	0	1018	39	6
0	0	0	1	0	517	515	0	0	38	6
1	0	0	1	0	504	508	0	1018	39	6
2	0	0	1	0	519	563	0	0	39	6
3	0	0	1	0	503	539	0	0	39	6
4	0	0	1	0	519	506	0	0	38	6
5	0	0	1	0	504	518	0	29	39	6
6	0	0	1	0	519	528	0	0	38	6
7	0	0	1	0	508	528	0	193	39	6
8	0	0	1	0	520	537	0	0	38	6
9	0	0	1	0	515	553	0	1	38	6
10	0	0	1	0	523	532	0	0	39	6
11	0	0	1	0	508	541	0	161	39	6
12	0	0	1	0	516	560	0	0	38	6
13	0	0	1	0	507	530	0	102	39	6
14	0	0	1	0	517	539	0	0	38	6
15	0	0	1	0	509	522	0	142	39	6
0	0	0	1	0	514	519	0	33	38	6
1	0	0	1	0	504	525	0	312	39	6
2	0	0	1	0	523	497	0	107	39	6
3	0	0	1	0	509	491	0	369	39	6
4	0	0	1	0	525	467	0	163	38	6
5	0	0	1	0	511	476	0	369	39	6
6	0	0	1	0	524	486	0	213	39	6
7	0	0	1	0	509	481	0	425	39	6
8	0	0	1	0	523	481	0	265	38	6
9	0	0	1	0	510	463	0	439	39	6
10	0	0	1	0	519	517	0	303	39	6
11	0	0	1	0	512	523	0	483	39	6
12	0	0	1	0	513	496	0	345	38	6
13	0	0	1	0	504	513	0	570	39	6
14	0	0	1	0	525	513	0	375	39	6
15	0	0	1	0	514	507	0	515	39	6
0	0	0	1	0	512	527	0	398	38	6
1	0	0	1	0	510	500	0	582	39	6
2	0	0	1	0	517	528	0	419	39	6
3	0	0	1	0	511	512	0	565	39	6
4	0	0	1	0	522	515	0	433	38	6
5	0	0	1	0	505	531	0	644	39	6
6	0	0	1	0	524	518	0	446	39	6
7	0	0	1	0	511	522	0	580	39	6
8	0	0	1	0	519	507	0	452	38	6
9	0	0	1	0	508	547	0	581	39	6
10	0	0	1	0	515	523	0	462	39	6
11	0	0	1	0	508	517	0	620	39	6
12	0	0	1	0	519	510	0	472	38	6
13	0	0	1	0	505	521	0	666	39	6
14	0	0	1	0	516	485	0	476	39	6
15	0	0	1	0	511	509	0	653	39	6
0	0	0	1	0	523	501	0	479	38	6
1	0	0	1	0	505	512	0	632	39	6
2	0	0	1	0	513	521	0	473	39	6
3	0	0	1	0	512	500	0	685	39	6
4	0	0	1	0	514	556	0	472	38	6
5	0	0	1	0	513	591	0	590	39	6
6	0	0	1	0	517	593	0	463	39	6
7	0	0	1	0	506	431	0	622	39	6
8	0	0	1	0	516	437	0	474	38	6
9	0	0	1	0	508	489	0	595	38	6
10	0	0	1	0	518	520	0	478	39	6
11	0	0	1	0	508	506	0	625	39	6
12	0	0	1	0	516	528	0	476	38	6
13	0	0	1	0	508	503	0	576	39	6
14	0	0	1	0	511	527	0	474	39	6
15	0	0	1	0	510	518	0	613	39	6
0	0	0	1	0	521	529	0	478	38	6
1	0	0	1	0	511	527	0	616	39	6
2	0	0	1	0	520	529	0	479	39	6
3	0	0	1	0	512	527	0	641	39	6
4	0	0	1	0	513	519	0	480	38	6
5	0	0	1	0	514	524	0	568	39	6
6	0	0	1	0	521	538	0	476	39	6
7	0	0	1	0	511	540	0	632	39	6
8	0	0	1	0	516	544	0	483	38	6
9	0	0	1	0	513	537	0	651	39	6
10	0	0	1	0	516	554	0	473	39	6
11	0	0	1	0	508	540	0	627	39	6
12	0	0	1	0	516	542	0	469	38	6
13	0	0	1	0	508	531	0	590	39	6
14	0	0	1	0	515	528	0	474	38	6
15	0	0	1	0	513	509	0	592	39	6
0	0	0	1	0	519	502	0	470	39	6
1	0	0	1	0	510	486	0	682	39	5
2	0	0	1	0	523	475	0	465	38	6
3	0	0	1	0	512	464	0	627	39	5
4	0	0	1	0	522	485	0	464	39	5
5	0	0	1	0	511	498	0	615	39	6
6	0	0	1	0	523	502	0	467	38	5
7	0	0	1	0	508	469	0	590	39	6
8	0	0	1	0	516	498	0	449	39	5
9	0	0	1	0	509	506	0	617	39	5
10	0	0	1	0	516	509	0	452	38	5
11	0	0	1	0	511	487	0	616	39	5
12	0	0	1	0	512	506	0	447	39	5
13	0	0	1	0	510	495	0	571	39	5
14	0	0	1	0	517	502	0	441	38	6
15	0	0	1	0	507	539	0	536	39	5
0	0	0	1	0	515	501	0	449	39	6
1	0	0	1	0	512	512	0	585	39	6
2	0	0	1	0	512	517	0	445	38	6
3	0	0	1	0	510	495	0	574	39	6
4	0	0	1	0	524	524	0	449	39	6
5	0	0	1	0	504	518	0	622	39	6
6	0	0	1	0	519	520	0	448	38	6
7	0	0	1	0	512	516	0	581	39	6
8	0	0	1	0	516	524	0	448	39	6
9	0	0	1	0	513	516	0	583	39	6
10	0	0	1	0	519	532	0	443	38	6
11	0	0	1	0	522	531	0	582	39	6
12	0	0	1	0	513	540	0	441	39	6
13	0	0	1	0	511	507	0	601	39	6
14	0	0	1	0	518	514	0	449	38	6
15	0	0	1	0	505	504	0	595	39	6
0	0	0	1	0	514	519	0	440	39	6
1	0	0	1	0	513	529	0	573	39	6
2	0	0	1	0	521	548	0	442	38	6
3	0	0	1	0	512	501	0	572	39	6
4	0	0	1	0	521	517	0	441	39	6
5	0	0	1	0	504	511	0	626	39	6
6	0	0	1	0	512	517	0	461	38	6
7	0	0	1	0	510	479	0	655	39	6
8	0	0	1	0	519	520	0	438	39	6
9	0	0	1	0	513	604	0	653	39	6
10	0	0	1	0	520	629	0	432	38	6
11	0	0	1	0	513	499	0	556	39	6
12	0	0	1	0	516	449	0	423	39	6
13	0	0	1	0	514	496	0	527	39	6
14	0	0	1	0	521	510	0	417	38	6
15	0	0	1	0	509	526	0	630	39	6
0	0	0	1	0	519	510	0	428	39	6
1	0	0	1	0	515	509	0	556	39	6
2	0	0	1	0	524	515	0	422	38	6
3	0	0	1	0	511	513	0	543	39	6
4	0	0	1	0	518	483	0	423	39	6
5	0	0	1	0	512	456	0	565	39	6
6	0	0	1	0	522	600	0	436	38	6
7	0	0	1	0	507	531	0	648	39	6
8	0	0	1	0	517	525	0	431	39	6
9	0	0	1	0	512	550	0	607	39	6
10	0	0	1	0	521	518	0	422	38	6
11	0	0	1	0	510	531	0	585	39	6
12	0	0	1	0	509	511	0	437	39	6
13	0	0	1	0	508	503	0	839	39	6
14	0	0	1	0	515	560	0	430	38	6
15	0	0	1	0	510	514	0	607	39	6
0	0	0	1	0	518	575	0	408	39	6
1	0	0	1	0	513	542	0	866	39	6
2	0	0	1	0	522	502	0	410	38	6
3	0	0	1	0	508	497	0	907	39	6
4	0	0	1	0	515	477	0	391	39	6
5	0	0	1	0	511	486	0	931	39	6
6	0	0	1	0	515	485	0	368	38	6
7	0	0	1	0	504	476	0	639	39	6
8	0	0	1	0	518	497	0	334	39	6
9	0	0	1	0	511	476	0	764	39	6
10	0	0	1	0	518	495	0	338	38	6
11	0	0	1	0	507	486	0	1018	39	6
12	0	0	1	0	508	508	0	353	39	6
13	0	0	1	0	508	481	0	1018	39	6
14	0	0	1	0	516	519	0	350	38	6
15	0	0	1	0	510	503	0	1018	39	6
0	0	0	1	0	523	502	0	273	39	6
1	0	0	1	0	513	526	0	749	39	6
2	0	0	1	0	515	518	0	178	38	6
3	0	0	1	0	511	502	0	1018	39	6
4	0	0	1	0	519	528	0	184	39	6
5	0	0	1	0	511	517	0	487	39	6
6	0	0	1	0	519	540	0	167	38	6
7	0	0	1	0	504	529	0	673	39	6
8	0	0	1	0	519	531	0	202	39	6
9	0	0	1	0	505	492	0	510	39	6
10	0	0	1	0	526	510	0	215	38	6
11	0	0	1	0	511	519	0	620	39	6
12	0	0	1	0	524	519	0	234	39	6
13	0	0	1	0	506	526	0	710	39	6
14	0	0	1	0	518	511	0	262	38	6
15	0	0	1	0	505	499	0	579	39	6
0	0	0	1	0	521	520	0	257	39	6
1	0	0	1	0	511	508	0	486	39	6
2	0	0	1	0	518	504	0	276	38	6
3	0	0	1	0	510	511	0	495	39	6
4	0	0	1	0	515	518	0	294	39	5
5	0	0	1	0	504	508	0	651	39	6
6	0	0	1	0	518	502	0	318	38	5
7	0	0	1	0	515	526	0	556	39	6
8	0	0	1	0	515	526	0	337	39	5
9	0	0	1	0	510	519	0	781	39	5
10	0	0	1	0	519	515	0	358	38	5
11	0	0	1	0	512	507	0	590	39	5
12	0	0	1	0	523	500	0	345	39	5
13	0	0	1	0	506	500	0	765	39	5
14	0	0	1	0	520	487	0	361	38	5
15	0	0	1	0	517	508	0	675	39	5
0	0	0	1	0	519	512	0	357	39	5
1	0	0	1	0	504	515	0	558	39	5
2	0	0	1	0	513	521	0	350	38	5
3	0	0	1	0	499	590	0	582	39	5
4	0	0	1	0	523	589	0	368	39	5
5	0	0	1	0	511	465	0	510	39	5
6	0	0	1	0	519	444	0	376	38	5
7	0	0	1	0	510	504	0	760	39	5
8	0	0	1	0	517	485	0	400	39	5
9	0	0	1	0	507	525	0	732	39	5
10	0	0	1	0	516	500	0	394	38	5
11	0	0	1	0	509	509	0	651	39	5
12	0	0	1	0	508	521	0	388	39	5
13	0	0	1	0	506	514	0	759	39	5
14	0	0	1	0	519	498	0	400	38	5
15	0	0	1	0	502	505	0	831	39	5
0	0	0	1	0	517	500	0	397	39	5
1	0	0	1	0	508	515	0	877	39	5
2	0	0	1	0	516	553	0	387	38	5
3	0	0	1	0	507	497	0	1018	39	5
4	0	0	1	0	519	545	0	387	39	5
5	0	0	1	0	510	531	0	528	39	5
6	0	0	1	0	518	525	0	338	38	5
7	0	0	1	0	505	524	0	630	39	5
8	0	0	1	0	524	555	0	352	39	5
9	0	0	1	0	507	529	0	622	39	5
10	0	0	1	0	509	542	0	361	38	5
11	0	0	1	0	508	542	0	727	39	5
12	0	0	1	0	519	525	0	370	39	6
13	0	0	1	0	512	546	0	533	39	6
14	0	0	1	0	512	515	0	372	38	6
15	0	0	1	0	510	525	0	867	39	6
0	0	0	1	0	521	500	0	395	39	6
1	0	0	1	0	507	472	0	541	39	6
2	0	0	1	0	521	489	0	372	38	6
3	0	0	1	0	510	482	0	737	39	6
4	0	0	1	0	523	512	0	393	39	6
5	0	0	1	0	507	503	0	805	39	6
6	0	0	1	0	515	515	0	395	38	6
7	0	0	1	0	508	504	0	756	39	6
8	0	0	1	0	516	515	0	392	39	6
9	0	0	1	0	504	504	0	940	39	6
10	0	0	1	0	519	515	0	388	38	6
11	0	0	1	0	504	502	0	701	39	6
12	0	0	1	0	512	512	0	367	39	6
13	0	0	1	0	497	514	0	923	39	6
14	0	0	1	0	524	515	0	382	38	6
15	0	0	1	0	511	518	0	721	39	6
0	0	0	1	0	521	520	0	353	39	6
1	0	0	1	0	508	519	0	1017	39	6
2	0	0	1	0	515	542	0	380	38	6
3	0	0	1	0	510	497	0	619	39	6
4	0	0	1	0	519	504	0	334	39	6
5	0	0	1	0	504	514	0	984	38	6
6	0	0	1	0	519	524	0	359	38	6
7	0	0	1	0	505	525	0	1018	38	6
8	0	0	1	0	519	525	0	358	39	6
9	0	0	1	0	508	513	0	964	38	6
10	0	0	1	0	522	529	0	322	38	6
11	0	0	1	0	514	499	0	1018	38	6
12	0	0	1	0	510	515	0	325	39	6
13	0	0	1	0	507	505	0	660	39	6
14	0	0	1	0	520	498	0	276	38	6
15	0	0	1	0	513	532	0	1018	39	6
0	0	0	1	0	518	506	0	365	39	6
1	0	0	1	0	509	522	0	1018	39	6
2	0	0	1	0	517	532	0	467	38	6
3	0	0	1	0	512	511	0	1018	39	6
4	0	0	1	0	516	519	0	217	39	6
5	0	0	1	0	508	520	0	214	39	6
6	0	0	1	0	515	519	0	54	38	6
7	0	0	1	0	509	515	0	347	39	6
8	0	0	1	0	517	539	0	124	39	6
9	0	0	1	0	507	497	0	393	39	6
10	0	0	1	0	518	507	0	177	38	6
11	0	0	1	0	510	502	0	392	39	6
12	0	0	1	0	512	486	0	222	39	6
13	0	0	1	0	506	516	0	625	39	6
14	0	0	1	0	512	503	0	264	38	6
15	0	0	1	0	512	517	0	465	39	6
0	0	0	1	0	521	501	0	281	39	6
1	0	0	1	0	518	504	0	667	38	6
2	0	0	1	0	520	590	0	330	38	6
3	0	0	1	0	509	600	0	999	38	6
4	0	0	1	0	511	522	0	364	39	6
5	0	0	1	0	512	456	0	585	39	6
6	0	0	1	0	514	497	0	319	38	6
7	0	0	1	0	507	476	0	567	39	6
8	0	0	1	0	521	511	0	327	39	6
9	0	0	1	0	517	500	0	540	39	6
10	0	0	1	0	519	518	0	352	38	6
11	0	0	1	0	510	530	0	624	39	6
12	0	0	1	0	516	524	0	376	39	6
13	0	0	1	0	510	541	0	545	39	6
14	0	0	1	0	523	526	0	367	38	6
15	0	0	1	0	504	505	0	616	39	6
0	0	0	1	0	515	547	0	393	39	6
1	0	0	1	0	510	489	0	584	39	6
2	0	0	1	0	514	531	0	404	38	6
3	0	0	1	0	511	534	0	668	39	6
4	0	0	1	0	521	502	0	409	39	6
5	0	0	1	0	501	561	0	643	39	6
6	0	0	1	0	523	535	0	424	38	6
7	0	0	1	0	511	507	0	572	39	6
8	0	0	1	0	514	569	0	418	39	6
9	0	0	1	0	507	532	0	557	39	6
10	0	0	1	0	521	528	0	422	38	6
11	0	0	1	0	516	549	0	643	39	6
12	0	0	1	0	511	484	0	433	39	6
13	0	0	1	0	502	467	0	646	39	6
14	0	0	1	0	517	526	0	446	38	6
15	0	0	1	0	513	494	0	678	39	6
0	0	0	1	0	513	496	0	450	39	6
1	0	0	1	0	507	552	0	883	39	6
2	0	0	1	0	519	481	0	478	38	6
3	0	0	1	0	515	437	0	873	38	6
4	0	0	1	0	519	472	0	443	39	6
5	0	0	1	0	506	475	0	1005	39	6
6	0	0	1	0	516	516	0	454	38	6
7	0	0	1	0	513	510	0	1018	39	6
8	0	0	1	0	515	516	0	447	39	6
9	0	0	1	0	510	501	0	1018	38	6
10	0	0	1	0	519	511	0	513	38	6
11	0	0	1	0	511	484	0	1018	39	6
12	0	0	1	0	517	497	0	456	39	6
13	0	0	1	0	507	519	0	1018	39	6
14	0	0	1	0	523	530	0	654	38	6
15	0	0	1	0	509	512	0	1018	38	6
0	0	0	1	0	511	523	0	291	39	6
1	0	0	1	0	519	511	0	1018	38	6
2	0	0	1	0	514	494	0	422	38	6
3	0	0	1	0	508	521	0	1018	39	6
4	0	0	1	0	521	531	0	377	39	6
5	0	0	1	0	505	520	0	1018	38	6
6	0	0	1	0	520	496	0	339	39	6
7	0	0	1	0	508	511	0	1018	38	6
8	0	0	1	0	515	528	0	80	38	6
9	0	0	1	0	510	527	0	1018	39	6
10	0	0	1	0	524	510	0	129	38	6
11	0	0	1	0	507	497	0	1018	39	6
12	0	0	1	0	519	515	0	114	39	6
13	0	0	1	0	511	537	0	1018	38	6
14	0	0	1	0	515	491	0	480	38	6
15	0	0	1	0	510	515	0	1018	38	6
0	0	0	1	0	513	542	0	540	39	6
1	0	0	1	0	510	483	0	1018	38	6
2	0	0	1	0	514	501	0	0	38	6
3	0	0	1	0	516	541	0	1018	39	6
4	0	0	1	0	513	521	0	0	39	6
5	0	0	1	0	509	491	0	1018	39	6
6	0	0	1	0	519	510	0	0	38	6
7	0	0	1	0	510	480	0	934	38	6
8	0	0	1	0	515	512	0	0	39	6
9	0	0	1	0	515	526	0	1018	38	6
10	0	0	1	0	518	543	0	0	38	6
11	0	0	1	0	508	505	0	1018	39	6
12	0	0	1	0	519	486	0	0	39	6
13	0	0	1	0	511	515	0	1018	39	6
14	0	0	1	0	516	488	0	22	38	6
15	0	0	1	0	504	513	0	1018	38	6
0	0	0	1	0	521	518	0	0	39	6
1	0	0	1	0	508	527	0	1009	38	6
2	0	0	1	0	519	511	0	0	38	6
3	0	0	1	0	516	527	0	1018	38	6
4	0	0	1	0	506	607	0	0	39	6
5	0	0	1	0	504	576	0	409	39	6
6	0	0	1	0	513	418	0	0	38	6
7	0	0	1	0	507	471	0	1018	39	6
8	0	0	1	0	518	484	0	0	39	6
9	0	0	1	0	502	500	0	1018	38	6
10	0	0	1	0	516	524	0	0	38	6
11	0	0	1	0	512	509	0	702	39	6
12	0	0	1	0	507	538	0	0	39	6
13	0	0	1	0	503	513	0	710	39	6
14	0	0	1	0	518	504	0	0	38	6
15	0	0	1	0	509	527	0	398	39	6
0	0	0	1	0	516	535	0	0	39	6
1	0	0	1	0	507	510	0	748	39	6
2	0	0	1	0	513	515	0	0	38	6
3	0	0	1	0	510	542	0	1018	38	6
4	0	0	1	0	516	539	0	0	39	6
5	0	0	1	0	506	514	0	438	39	6
6	0	0	1	0	509	535	0	0	38	6
7	0	0	1	0	508	551	0	608	39	6
8	0	0	1	0	512	529	0	0	39	6
9	0	0	1	0	508	527	0	482	39	6
10	0	0	1	0	515	540	0	0	38	6
11	0	0	1	0	514	540	0	204	39	6
12	0	0	1	0	514	512	0	0	39	6
13	0	0	1	0	504	552	0	859	39	6
14	0	0	1	0	519	531	0	0	38	6
15	0	0	1	0	508	487	0	274	39	6
0	0	0	1	0	521	495	0	0	39	6
1	0	0	1	0	510	499	0	0	39	6
2	0	0	1	0	512	483	0	0	38	6
3	0	0	1	0	514	468	0	322	39	6
4	0	0	1	0	512	465	0	0	39	6
5	0	0	1	0	510	508	0	674	39	6
6	0	0	1	0	513	498	0	0	38	6
7	0	0	1	0	511	496	0	509	39	6
8	0	0	1	0	503	501	0	0	39	6
9	0	0	1	0	513	499	0	761	39	6
10	0	0	1	0	519	488	0	122	38	6
11	0	0	1	0	507	481	0	1018	39	6
12	0	0	1	0	516	515	0	394	39	6
13	0	0	1	0	512	528	0	1018	38	6
14	0	0	1	0	520	511	0	395	38	6
15	0	0	1	0	515	520	0	1018	39	6
0	0	0	1	0	522	521	0	799	39	6
1	0	0	1	0	509	483	0	848	39	6
2	0	0	1	0	518	496	0	368	38	6
3	0	0	1	0	511	502	0	1018	38	6
4	0	0	1	0	516	522	0	435	39	6
5	0	0	1	0	518	520	0	720	39	6
6	0	0	1	0	515	513	0	11	38	6
7	0	0	1	0	509	520	0	371	39	6
8	0	0	1	0	512	526	0	0	39	6
9	0	0	1	0	510	507	0	454	39	6
10	0	0	1	0	516	517	0	0	38	6
11	0	0	1	0	510	518	0	304	39	6
12	0	0	1	0	514	475	0	0	39	6
13	0	0	1	0	509	553	0	744	39	6
14	0	0	1	0	514	519	0	270	38	6
15	0	0	1	0	512	506	0	580	38	6
0	0	0	1	0	513	542	0	52	39	6
1	0	0	1	0	517	526	0	757	39	6
2	0	0	1	0	516	491	0	142	38	6
3	0	0	1	0	507	529	0	766	39	6
4	0	0	1	0	512	544	0	407	39	6
5	0	0	1	0	509	471	0	799	38	6
6	0	0	1	0	511	508	0	316	38	6
7	0	0	1	0	508	553	0	627	39	6
8	0	0	1	0	510	507	0	223	39	6
9	0	0	1	0	511	514	0	503	39	6
10	0	0	1	0	511	510	0	249	38	6
11	0	0	1	0	511	497	0	631	39	6
12	0	0	1	0	511	492	0	309	39	6
13	0	0	1	0	515	544	0	344	39	6
14	0	0	1	0	520	510	0	266	38	6
15	0	0	1	0	512	503	0	738	39	6
0	0	0	1	0	517	515	0	610	38	6
1	0	0	1	0	509	498	0	331	38	6
2	0	0	1	0	513	531	0	0	39	6
3	0	0	1	0	502	545	0	575	38	6
4	0	0	1	0	514	589	0	337	38	6
5	0	0	1	0	513	450	0	499	39	6
6	0	0	1	0	514	437	0	230	38	6
7	0	0	1	0	516	501	0	0	38	6
8	0	0	1	0	513	510	0	0	39	6
9	0	0	1	0	516	485	0	0	39	6
10	0	0	1	0	512	503	0	0	38	6
11	0	0	1	0	510	551	0	0	39	6
12	0	0	1	0	514	517	0	0	39	6
13	0	0	1	0	511	514	0	0	39	6
14	0	0	1	0	514	519	0	27	38	6
15	0	0	1	0	516	481	0	396	39	6
0	0	0	1	0	512	518	0	247	38	6
1	0	0	1	0	512	524	0	0	39	6
2	0	0	1	0	521	532	0	0	38	6
3	0	0	1	0	511	529	0	212	38	6
4	0	0	1	0	512	516	0	206	39	6
5	0	0	1	0	509	510	0	563	39	6
6	0	0	1	0	514	532	0	471	38	6
7	0	0	1	0	510	521	0	307	39	6
8	0	0	1	0	523	549	0	269	39	6
9	0	0	1	0	511	548	0	381	39	6
10	0	0	1	0	511	543	0	187	38	6
11	0	0	1	0	510	537	0	420	38	6
12	0	0	1	0	513	513	0	441	39	6
13	0	0	1	0	512	519	0	309	39	6
14	0	0	1	0	519	481	0	204	38	6
15	0	0	1	0	516	459	0	386	39	6
0	0	0	1	0	512	517	0	486	39	6
1	0	0	1	0	505	471	0	175	39	6
2	0	0	1	0	513	472	0	203	38	6
3	0	0	1	0	507	491	0	357	39	6
4	0	0	1	0	510	510	0	476	39	6
5	0	0	1	0	521	491	0	252	39	6
6	0	0	1	0	517	486	0	265	38	6
7	0	0	1	0	509	517	0	281	39	6
8	0	0	1	0	511	506	0	456	39	6
9	0	0	1	0	511	485	0	326	39	6
10	0	0	1	0	512	526	0	412	38	6
11	0	0	1	0	509	500	0	220	38	6
12	0	0	1	0	518	510	0	282	39	6
13	0	0	1	0	512	500	0	403	39	6
14	0	0	1	0	510	505	0	419	38	6
15	0	0	1	0	517	503	0	361	39	6
0	0	0	1	0	511	505	0	451	39	6
1	0	0	1	0	511	526	0	199	39	6
2	0	0	1	0	509	542	0	224	38	6
3	0	0	1	0	510	513	0	249	39	6
4	0	0	1	0	521	521	0	296	39	6
5	0	0	1	0	511	536	0	219	39	6
6	0	0	1	0	517	527	0	299	38	6
7	0	0	1	0	506	496	0	166	39	6
8	0	0	1	0	512	503	0	186	39	6
9	0	0	1	0	512	537	0	241	39	6
10	0	0	1	0	519	535	0	435	38	6
11	0	0	1	0	506	511	0	182	39	6
12	0	0	1	0	519	540	0	352	39	6
13	0	0	1	0	515	519	0	0	39	6
14	0	0	1	0	509	547	0	361	38	6
15	0	0	1	0	513	532	0	0	39	6
0	0	0	1	0	515	493	0	430	39	6
1	0	0	1	0	508	541	0	0	39	6
2	0	0	1	0	517	542	0	252	38	6
3	0	0	1	0	515	527	0	292	39	6
4	0	0	1	0	515	506	0	340	39	6
5	0	0	1	0	511	515	0	0	39	6
6	0	0	1	0	509	509	0	104	38	6
7	0	0	1	0	514	513	0	0	39	6
8	0	0	1	0	509	565	0	120	39	6
9	0	0	1	0	508	610	0	215	38	6
10	0	0	1	0	511	527	0	384	38	6
11	0	0	1	0	519	440	0	242	39	6
12	0	0	1	0	524	481	0	271	39	6
13	0	0	1	0	511	504	0	285	39	6
14	0	0	1	0	512	505	0	413	38	6
15	0	0	1	0	508	525	0	375	39	6
0	0	0	1	0	510	526	0	432	39	6
1	0	0	1	0	515	514	0	411	39	6
2	0	0	1	0	517	517	0	557	38	6
3	0	0	1	0	519	512	0	312	39	6
4	0	0	1	0	510	517	0	362	39	6
5	0	0	1	0	512	542	0	452	39	6
6	0	0	1	0	508	543	0	478	38	6
7	0	0	1	0	514	522	0	281	39	6
8	0	0	1	0	507	524	0	543	39	6
9	0	0	1	0	519	525	0	348	39	6
10	0	0	1	0	514	522	0	505	38	6
11	0	0	1	0	513	537	0	303	39	6
12	0	0	1	0	513	527	0	492	39	6
13	0	0	1	0	514	542	0	349	39	6
14	0	0	1	0	510	541	0	455	38	6
15	0	0	1	0	509	551	0	432	39	6
0	0	0	1	0	514	552	0	529	39	6
1	0	0	1	0	520	547	0	419	39	6
2	0	0	1	0	514	521	0	587	38	6
3	0	0	1	0	522	490	0	396	39	6
4	0	0	1	0	520	498	0	557	39	6
5	0	0	1	0	515	490	0	264	39	6
6	0	0	1	0	516	500	0	499	38	6
7	0	0	1	0	517	493	0	379	39	6
8	0	0	1	0	521	508	0	591	39	6
9	0	0	1	0	517	481	0	320	39	6
10	0	0	1	0	509	489	0	523	38	6
11	0	0	1	0	516	492	0	369	39	6
12	0	0	1	0	513	495	0	556	39	6
13	0	0	1	0	520	504	0	257	39	6
14	0	0	1	0	516	503	0	393	38	6
15	0	0	1	0	511	494	0	334	39	6
0	0	0	1	0	514	508	0	459	39	6
1	0	0	1	0	520	503	0	355	39	6
2	0	0	1	0	513	499	0	480	38	6
3	0	0	1	0	512	514	0	361	39	6
4	0	0	1	0	513	491	0	675	39	6
5	0	0	1	0	516	527	0	311	39	6
6	0	0	1	0	513	527	0	427	38	6
7	0	0	1	0	518	508	0	363	39	6
8	0	0	1	0	508	508	0	638	39	6
9	0	0	1	0	509	523	0	337	39	6
10	0	0	1	0	522	511	0	466	38	6
11	0	0	1	0	512	538	0	322	39	6
12	0	0	1	0	514	508	0	458	39	6
13	0	0	1	0	518	519	0	339	39	6
14	0	0	1	0	511	508	0	666	38	6
15	0	0	1	0	518	519	0	276	39	6
0	0	0	1	0	514	506	0	430	39	6
1	0	0	1	0	511	504	0	305	39	6
2	0	0	1	0	508	504	0	449	38	6
3	0	0	1	0	522	510	0	393	39	6
4	0	0	1	0	515	522	0	660	39	6
5	0	0	1	0	515	523	0	286	39	6
6	0	0	1	0	512	497	0	470	38	6
7	0	0	1	0	510	504	0	306	39	6
8	0	0	1	0	515	512	0	644	39	6
9	0	0	1	0	519	534	0	283	39	6
10	0	0	1	0	508	514	0	435	38	6
11	0	0	1	0	515	496	0	305	39	6
12	0	0	1	0	512	516	0	436	39	6
13	0	0	1	0	519	507	0	322	39	6
14	0	0	1	0	508	528	0	638	38	6
15	0	0	1	0	519	590	0	285	39	6
0	0	0	1	0	505	577	0	499	39	6
1	0	0	1	0	512	487	0	289	39	6
2	0	0	1	0	508	439	0	519	38	6
3	0	0	1	0	515	487	0	273	39	6
4	0	0	1	0	505	508	0	577	39	6
5	0	0	1	0	517	504	0	337	39	6
6	0	0	1	0	514	538	0	801	38	6
7	0	0	1	0	518	508	0	238	38	6
8	0	0	1	0	510	516	0	484	39	6
9	0	0	1	0	515	518	0	237	39	6
10	0	0	1	0	509	511	0	641	38	6
11	0	0	1	0	519	532	0	240	39	6
12	0	0	1	0	514	525	0	501	39	6
13	0	0	1	0	515	540	0	237	39	6
14	0	0	1	0	510	514	0	466	38	6
15	0	0	1	0	515	534	0	211	39	6
0	0	0	1	0	514	531	0	514	39	6
1	0	0	1	0	513	529	0	227	39	6
2	0	0	1	0	500	531	0	696	38	6
3	0	0	1	0	522	532	0	242	39	6
4	0	0	1	0	517	528	0	531	39	6
5	0	0	1	0	518	552	0	185	39	6
6	0	0	1	0	514	553	0	497	38	6
7	0	0	1	0	514	534	0	252	39	6
8	0	0	1	0	508	500	0	433	39	6
9	0	0	1	0	519	503	0	227	39	6
10	0	0	1	0	514	504	0	609	38	6
11	0	0	1	0	513	500	0	213	39	6
12	0	0	1	0	505	497	0	466	39	6
13	0	0	1	0	515	483	0	212	39	6
14	0	0	1	0	510	473	0	532	38	6
15	0	0	1	0	508	503	0	232	39	6
0	0	0	1	0	514	502	0	442	39	6
1	0	0	1	0	515	483	0	222	39	6
2	0	0	1	0	515	499	0	477	38	6
3	0	0	1	0	522	507	0	228	39	6
4	0	0	1	0	507	495	0	405	39	6
5	0	0	1	0	513	513	0	250	39	6
6	0	0	1	0	511	504	0	519	38	6
7	0	0	1	0	518	512	0	286	39	6
8	0	0	1	0	507	488	0	641	39	6
9	0	0	1	0	517	516	0	288	39	6
10	0	0	1	0	509	525	0	697	38	6
11	0	0	1	0	512	526	0	243	39	6
12	0	0	1	0	505	510	0	500	39	6
13	0	0	1	0	508	501	0	242	39	6
14	0	0	1	0	509	491	0	484	38	6
15	0	0	1	0	519	507	0	246	39	6
0	0	0	1	0	509	505	0	527	39	6
1	0	0	1	0	518	511	0	270	39	6
2	0	0	1	0	506	528	0	571	38	6
3	0	0	1	0	521	519	0	252	39	6
4	0	0	1	0	509	523	0	562	39	6
5	0	0	1	0	513	514	0	246	39	6
6	0	0	1	0	508	512	0	801	38	6
7	0	0	1	0	520	514	0	221	39	6
8	0	0	1	0	506	493	0	663	39	6
9	0	0	1	0	515	535	0	187	39	6
10	0	0	1	0	503	537	0	403	38	6
11	0	0	1	0	518	539	0	204	39	6
12	0	0	1	0	505	526	0	527	39	6
13	0	0	1	0	519	502	0	203	39	6
14	0	0	1	0	506	508	0	643	38	6
15	0	0	1	0	518	502	0	194	39	6
0	0	0	1	0	502	489	0	595	39	6
1	0	0	1	0	523	534	0	195	39	6
2	0	0	1	0	506	505	0	551	38	6
3	0	0	1	0	523	500	0	193	39	6
4	0	0	1	0	501	519	0	417	39	6
5	0	0	1	0	516	568	0	202	39	6
6	0	0	1	0	507	588	0	583	38	6
7	0	0	1	0	516	524	0	212	39	6
8	0	0	1	0	508	427	0	803	39	6
9	0	0	1	0	517	489	0	188	39	6
10	0	0	1	0	505	485	0	492	38	6
11	0	0	1	0	514	489	0	194	39	6
12	0	0	1	0	506	519	0	383	39	6
13	0	0	1	0	516	525	0	221	39	6
14	0	0	1	0	510	511	0	482	38	6
15	0	0	1	0	517	518	0	217	39	6
0	0	0	1	0	507	509	0	601	39	6
1	0	0	1	0	518	542	0	228	39	6
2	0	0	1	0	509	512	0	524	38	6
3	0	0	1	0	529	521	0	229	39	6
4	0	0	1	0	509	537	0	610	39	6
5	0	0	1	0	523	523	0	235	39	6
6	0	0	1	0	504	527	0	554	38	6
7	0	0	1	0	521	535	0	233	39	6
8	0	0	1	0	516	528	0	609	39	6
9	0	0	1	0	516	532	0	219	39	6
10	0	0	1	0	510	541	0	510	38	6
11	0	0	1	0	520	527	0	226	39	6
12	0	0	1	0	506	528	0	864	39	6
13	0	0	1	0	521	555	0	221	39	6
14	0	0	1	0	507	535	0	513	38	6
15	0	0	1	0	516	509	0	211	39	6
0	0	0	1	0	514	535	0	476	39	6
1	0	0	1	0	516	502	0	207	39	6
2	0	0	1	0	505	492	0	607	38	6
3	0	0	1	0	523	495	0	210	39	6
4	0	0	1	0	504	482	0	536	39	6
5	0	0	1	0	518	487	0	213	39	6
6	0	0	1	0	510	478	0	577	38	6
7	0	0	1	0	521	513	0	233	39	6
8	0	0	1	0	512	490	0	480	39	6
9	0	0	1	0	515	508	0	230	39	6
10	0	0	1	0	511	505	0	673	38	6
11	0	0	1	0	512	511	0	222	39	6
12	0	0	1	0	510	491	0	619	39	6
13	0	0	1	0	527	497	0	216	39	6
14	0	0	1	0	505	506	0	559	38	6
15	0	0	1	0	518	524	0	229	39	6
0	0	0	1	0	499	508	0	620	39	6
1	0	0	1	0	517	512	0	232	39	6
2	0	0	1	0	512	510	0	692	38	6
3	0	0	1	0	518	514	0	224	39	6
4	0	0	1	0	497	523	0	782	39	6
5	0	0	1	0	527	519	0	199	39	6
6	0	0	1	0	504	521	0	507	38	6
7	0	0	1	0	524	489	0	195	39	6
8	0	0	1	0	504	508	0	466	39	6
9	0	0	1	0	522	519	0	210	39	6
10	0	0	1	0	505	506	0	675	38	6
11	0	0	1	0	516	530	0	215	39	6
12	0	0	1	0	497	517	0	576	39	6
13	0	0	1	0	517	512	0	212	39	6
14	0	0	1	0	510	526	0	583	38	6
15	0	0	1	0	520	515	0	215	39	6
0	0	0	1	0	502	515	0	502	39	6
1	0	0	1	0	524	538	0	225	39	6
2	0	0	1	0	504	508	0	580	38	6
3	0	0	1	0	516	536	0	239	39	6
4	0	0	1	0	502	518	0	646	39	6
5	0	0	1	0	525	514	0	224	39	6
6	0	0	1	0	505	510	0	610	38	6
7	0	0	1	0	524	506	0	225	39	6
8	0	0	1	0	508	505	0	574	39	6
9	0	0	1	0	521	529	0	230	39	6
10	0	0	1	0	506	516	0	577	38	6
11	0	0	1	0	517	504	0	234	39	6
12	0	0	1	0	508	509	0	672	39	6
13	0	0	1	0	518	551	0	237	39	6
14	0	0	1	0	510	589	0	539	38	6
15	0	0	1	0	515	548	0	239	39	6
0	0	0	1	0	509	428	0	487	39	6
1	0	0	1	0	527	460	0	260	39	6
2	0	0	1	0	514	500	0	725	38	6
3	0	0	1	0	513	511	0	266	39	6
4	0	0	1	0	499	516	0	534	39	6
5	0	0	1	0	519	503	0	265	39	6
6	0	0	1	0	508	509	0	454	38	6
7	0	0	1	0	522	512	0	274	39	6
8	0	0	1	0	504	519	0	562	39	6
9	0	0	1	0	513	519	0	288	39	6
10	0	0	1	0	507	520	0	627	38	6
11	0	0	1	0	521	514	0	298	39	6
12	0	0	1	0	505	527	0	657	39	6
13	0	0	1	0	524	540	0	304	39	6
14	0	0	1	0	508	523	0	530	38	6
15	0	0	1	0	520	533	0	292	39	6
0	0	0	1	0	503	513	0	872	39	6
1	0	0	1	0	521	547	0	282	39	6
2	0	0	1	0	500	550	0	662	38	6
3	0	0	1	0	526	527	0	259	39	6
4	0	0	1	0	512	550	0	794	39	6
5	0	0	1	0	523	532	0	251	39	6
6	0	0	1	0	509	528	0	595	38	6
7	0	0	1	0	520	513	0	242	39	6
8	0	0	1	0	512	494	0	612	39	6
9	0	0	1	0	521	513	0	237	39	6
10	0	0	1	0	511	517	0	618	38	6
11	0	0	1	0	519	474	0	240	39	6
12	0	0	1	0	505	500	0	512	39	6
13	0	0	1	0	517	501	0	251	39	6
14	0	0	1	0	507	480	0	657	38	6
15	0	0	1	0	527	504	0	261	39	6
0	0	0	1	0	505	504	0	1018	39	6
1	0	0	1	0	523	500	0	251	39	6
2	0	0	1	0	507	487	0	512	38	6
3	0	0	1	0	524	507	0	195	39	6
4	0	0	1	0	507	504	0	1018	39	6
5	0	0	1	0	519	491	0	209	39	6
6	0	0	1	0	504	504	0	1018	38	6
7	0	0	1	0	525	512	0	172	39	6
8	0	0	1	0	505	517	0	1018	39	6
9	0	0	1	0	518	527	0	29	39	6
10	0	0	1	0	505	511	0	148	38	6
11	0	0	1	0	525	500	0	0	39	6
12	0	0	1	0	510	509	0	212	39	6
13	0	0	1	0	528	514	0	63	39	6
14	0	0	1	0	510	500	0	237	38	6
15	0	0	1	0	517	524	0	128	39	6
0	0	0	1	0	511	517	0	278	39	6
1	0	0	1	0	520	514	0	206	39	6
2	0	0	1	0	502	508	0	359	38	6
3	0	0	1	0	524	505	0	231	39	6
4	0	0	1	0	510	527	0	456	39	6
5	0	0	1	0	521	518	0	271	39	6
6	0	0	1	0	507	492	0	655	38	6
7	0	0	1	0	521	542	0	285	39	6
8	0	0	1	0	502	521	0	839	39	6
9	0	0	1	0	517	513	0	287	39	6
10	0	0	1	0	505	528	0	1018	38	6
11	0	0	1	0	528	485	0	263	39	6
12	0	0	1	0	499	512	0	834	39	6
13	0	0	1	0	520	514	0	200	39	6
14	0	0	1	0	504	503	0	1018	38	6
15	0	0	1	0	520	497	0	166	39	6
0	0	0	1	0	501	519	0	1018	39	6
1	0	0	1	0	521	523	0	139	39	6
2	0	0	1	0	507	588	0	479	38	6
3	0	0	1	0	523	587	0	102	39	6
4	0	0	1	0	505	492	0	414	38	6
5	0	0	1	0	520	435	0	136	39	6
6	0	0	1	0	502	475	0	1018	38	6
7	0	0	1	0	525	502	0	166	39	6
8	0	0	1	0	503	541	0	1018	39	6
9	0	0	1	0	521	519	0	116	39	6
10	0	0	1	0	504	512	0	1018	38	6
11	0	0	1	0	525	529	0	71	39	6
12	0	0	1	0	507	528	0	1018	39	6
13	0	0	1	0	526	511	0	0	39	6
14	0	0	1	0	501	520	0	1018	38	6
15	0	0	1	0	519	566	0	0	39	6
0	0	0	1	0	504	526	0	1018	39	6
1	0	0	1	0	523	533	0	0	39	6
2	0	0	1	0	504	511	0	1018	38	6
3	0	0	1	0	524	508	0	0	39	6
4	0	0	1	0	506	535	0	1018	39	6
5	0	0	1	0	528	550	0	0	38	6
6	0	0	1	0	500	579	0	1018	38	6
7	0	0	1	0	521	528	0	0	38	6
8	0	0	1	0	504	525	0	821	39	6
9	0	0	1	0	519	559	0	0	39	6
10	0	0	1	0	508	519	0	1018	38	6
11	0	0	1	0	520	535	0	0	39	6
12	0	0	1	0	502	518	0	802	39	6
13	0	0	1	0	524	497	0	0	39	6
14	0	0	1	0	503	487	0	1018	38	6
15	0	0	1	0	519	493	0	0	39	6
0	0	0	1	0	513	476	0	826	39	6
1	0	0	1	0	518	483	0	0	39	6
2	0	0	1	0	510	483	0	594	38	6
3	0	0	1	0	517	473	0	0	39	6
4	0	0	1	0	506	466	0	1018	39	6
5	0	0	1	0	523	499	0	0	39	6
6	0	0	1	0	504	483	0	1018	38	6
7	0	0	1	0	515	519	0	0	39	6
8	0	0	1	0	506	524	0	740	39	6
9	0	0	1	0	519	494	0	0	39	6
10	0	0	1	0	508	478	0	459	38	6
11	0	0	1	0	515	514	0	0	39	6
12	0	0	1	0	508	508	0	266	39	6
13	0	0	1	0	516	513	0	0	39	6
14	0	0	1	0	509	516	0	356	38	6
15	0	0	1	0	518	551	0	0	39	6
0	0	0	1	0	504	522	0	463	39	6
1	0	0	1	0	516	510	0	0	39	6
2	0	0	1	0	508	510	0	376	38	6
3	0	0	1	0	518	524	0	0	39	6
4	0	0	1	0	504	518	0	518	39	6
5	0	0	1	0	520	515	0	58	39	6
6	0	0	1	0	503	522	0	420	38	6
7	0	0	1	0	521	518	0	108	39	6
8	0	0	1	0	503	514	0	537	39	6
9	0	0	1	0	519	515	0	167	39	6
10	0	0	1	0	511	518	0	506	38	6
11	0	0	1	0	524	507	0	214	39	6
12	0	0	1	0	504	495	0	501	39	6
13	0	0	1	0	524	500	0	253	39	6
14	0	0	1	0	514	518	0	779	38	6
15	0	0	1	0	519	529	0	294	39	6
0	0	0	1	0	517	503	0	769	39	6
1	0	0	1	0	515	501	0	304	39	6
2	0	0	1	0	510	487	0	670	38	6
3	0	0	1	0	520	503	0	320	39	6
4	0	0	1	0	508	599	0	888	39	6
5	0	0	1	0	515	594	0	323	39	6
6	0	0	1	0	510	460	0	732	38	6
7	0	0	1	0	516	443	0	325	39	5
8	0	0	1	0	505	486	0	671	39	6
9	0	0	1	0	520	514	0	331	39	6
10	0	0	1	0	510	504	0	810	38	6
11	0	0	1	0	522	499	0	351	39	6
12	0	0	1	0	508	522	0	715	39	6
13	0	0	1	0	524	535	0	358	39	6
14	0	0	1	0	510	518	0	928	38	6
15	0	0	1	0	519	542	0	355	39	6
0	0	0	1	0	508	514	0	581	39	6
1	0	0	1	0	526	516	0	336	39	6
2	0	0	1	0	512	526	0	767	38	6
3	0	0	1	0	519	520	0	363	39	6
4	0	0	1	0	513	513	0	790	39	5
5	0	0	1	0	518	528	0	366	39	6
6	0	0	1	0	511	533	0	685	38	6
7	0	0	1	0	523	524	0	359	39	5
8	0	0	1	0	511	534	0	575	39	5
9	0	0	1	0	516	559	0	372	39	6
10	0	0	1	0	509	547	0	683	38	5
11	0	0	1	0	509	540	0	398	39	6
12	0	0	1	0	507	520	0	882	39	6
13	0	0	1	0	517	542	0	395	39	6
14	0	0	1	0	505	489	0	526	38	6
15	0	0	1	0	519	497	0	380	39	6
0	0	0	1	0	511	465	0	673	39	5
1	0	0	1	0	516	497	0	400	39	6
2	0	0	1	0	512	489	0	657	38	6
3	0	0	1	0	521	478	0	403	39	6
4	0	0	1	0	509	493	0	829	39	6
5	0	0	1	0	514	492	0	410	39	6
6	0	0	1	0	504	504	0	686	38	6
7	0	0	1	0	513	481	0	405	39	6
8	0	0	1	0	511	485	0	626	39	6
9	0	0	1	0	513	508	0	404	39	6
10	0	0	1	0	508	510	0	639	38	6
11	0	0	1	0	515	512	0	404	39	6
12	0	0	1	0	508	502	0	717	39	6
13	0	0	1	0	524	493	0	409	39	6
14	0	0	1	0	512	509	0	1018	38	6
15	0	0	1	0	520	512	0	417	39	6
0	0	0	1	0	508	499	0	692	39	6
1	0	0	1	0	519	507	0	383	39	6
2	0	0	1	0	514	524	0	647	38	6
3	0	0	1	0	519	503	0	376	39	6
4	0	0	1	0	512	527	0	623	39	6
5	0	0	1	0	516	504	0	378	39	6
6	0	0	1	0	507	494	0	631	38	6
7	0	0	1	0	517	510	0	390	39	6
8	0	0	1	0	504	495	0	687	39	6
9	0	0	1	0	514	541	0	396	39	6
10	0	0	1	0	515	528	0	725	38	6
11	0	0	1	0	515	515	0	392	39	6
12	0	0	1	0	518	541	0	656	39	6
13	0	0	1	0	520	531	0	390	39	6
14	0	0	1	0	507	496	0	870	38	6
15	0	0	1	0	521	506	0	394	39	6
0	0	0	1	0	507	510	0	688	39	6
1	0	0	1	0	515	516	0	384	39	6
2	0	0	1	0	505	498	0	803	38	6
3	0	0	1	0	516	512	0	377	39	6
4	0	0	1	0	517	489	0	798	39	6
5	0	0	1	0	517	534	0	369	39	6
6	0	0	1	0	510	580	0	690	38	6
7	0	0	1	0	516	600	0	350	39	6
8	0	0	1	0	512	466	0	764	39	6
9	0	0	1	0	522	432	0	365	39	6
10	0	0	1	0	511	491	0	606	38	6
11	0	0	1	0	511	501	0	354	39	6
12	0	0	1	0	511	523	0	615	39	6
13	0	0	1	0	518	514	0	366	39	6
14	0	0	1	0	507	505	0	636	38	6
15	0	0	1	0	514	524	0	368	39	6
0	0	0	1	0	511	496	0	952	39	6
1	0	0	1	0	526	543	0	377	39	6
2	0	0	1	0	511	517	0	856	38	6
3	0	0	1	0	515	528	0	355	39	6
4	0	0	1	0	509	509	0	871	39	6
5	0	0	1	0	520	535	0	337	39	6
6	0	0	1	0	510	522	0	679	38	6
7	0	0	1	0	517	535	0	317	39	6
8	0	0	1	0	504	547	0	718	39	6
9	0	0	1	0	523	539	0	322	39	6
10	0	0	1	0	511	522	0	937	38	6
11	0	0	1	0	523	536	0	332	39	6
12	0	0	1	0	507	554	0	864	39	6
13	0	0	1	0	517	538	0	316	39	6
14	0	0	1	0	502	528	0	784	38	6
15	0	0	1	0	516	544	0	300	39	6
0	0	0	1	0	504	503	0	855	39	6
1	0	0	1	0	519	506	0	297	39	6
2	0	0	1	0	506	477	0	1018	38	6
3	0	0	1	0	523	485	0	292	39	6
4	0	0	1	0	499	496	0	1018	39	6
5	0	0	1	0	524	496	0	283	39	6
6	0	0	1	0	504	482	0	865	38	6
7	0	0	1	0	519	490	0	238	39	6
8	0	0	1	0	503	498	0	1018	39	6
9	0	0	1	0	517	507	0	262	39	6
10	0	0	1	0	511	491	0	1018	38	6
11	0	0	1	0	519	496	0	220	39	6
12	0	0	1	0	507	495	0	1018	39	6
13	0	0	1	0	523	506	0	161	39	6
14	0	0	1	0	505	507	0	1018	38	6
15	0	0	1	0	520	508	0	121	39	6
0	0	0	1	0	509	560	0	540	39	6
1	0	0	1	0	523	514	0	96	39	6
2	0	0	1	0	504	508	0	660	38	6
3	0	0	1	0	518	513	0	131	39	6
4	0	0	1	0	514	505	0	1018	39	6
5	0	0	1	0	518	509	0	181	39	6
6	0	0	1	0	509	510	0	1018	38	6
7	0	0	1	0	523	529	0	147	39	6
8	0	0	1	0	512	514	0	1018	39	6
9	0	0	1	0	515	532	0	121	39	6
10	0	0	1	0	512	515	0	1018	38	6
11	0	0	1	0	517	498	0	131	39	6
12	0	0	1	0	506	515	0	1018	39	6
13	0	0	1	0	515	509	0	126	39	6
14	0	0	1	0	510	540	0	1018	38	6
15	0	0	1	0	514	496	0	99	39	6
0	0	0	1	0	505	526	0	926	39	6
1	0	0	1	0	515	520	0	93	39	6
2	0	0	1	0	508	521	0	1018	38	6
3	0	0	1	0	516	511	0	146	39	6
4	0	0	1	0	504	520	0	835	39	6
5	0	0	1	0	515	509	0	35	39	6
6	0	0	1	0	511	496	0	1018	38	6
7	0	0	1	0	512	536	0	70	39	6
8	0	0	1	0	507	481	0	1018	39	6
9	0	0	1	0	515	491	0	91	39	6
10	0	0	1	0	509	517	0	1018	38	6
11	0	0	1	0	519	505	0	96	39	6
12	0	0	1	0	509	517	0	1018	39	6
13	0	0	1	0	515	561	0	20	39	6
14	0	0	1	0	514	597	0	1018	38	6
15	0	0	1	0	519	512	0	107	39	6
0	0	0	1	0	499	421	0	1018	39	6
1	0	0	1	0	519	481	0	0	39	6
2	0	0	1	0	513	492	0	1018	38	6
3	0	0	1	0	513	527	0	0	39	6
4	0	0	1	0	508	532	0	1018	39	6
5	0	0	1	0	520	527	0	0	39	6
6	0	0	1	0	508	501	0	1018	38	6
7	0	0	1	0	513	527	0	0	39	6
8	0	0	1	0	508	505	0	1018	39	6
9	0	0	1	0	516	516	0	0	39	6
10	0	0	1	0	504	528	0	1018	38	6
11	0	0	1	0	514	519	0	0	39	6
12	0	0	1	0	508	522	0	1018	39	6
13	0	0	1	0	517	521	0	0	39	6
14	0	0	1	0	515	536	0	1018	38	6
15	0	0	1	0	521	536	0	0	39	6
0	0	0	1	0	504	534	0	1018	39	6
1	0	0	1	0	526	539	0	0	39	6
2	0	0	1	0	504	576	0	1018	38	6
3	0	0	1	0	524	511	0	0	39	6
4	0	0	1	0	507	527	0	1018	39	6
5	0	0	1	0	519	545	0	0	39	6
6	0	0	1	0	503	530	0	1018	38	6
7	0	0	1	0	518	521	0	0	39	6
8	0	0	1	0	512	521	0	1018	39	6
9	0	0	1	0	517	491	0	14	39	6
10	0	0	1	0	510	470	0	1018	38	6
11	0	0	1	0	525	493	0	0	38	6
12	0	0	1	0	510	478	0	976	39	6
13	0	0	1	0	518	516	0	0	39	6
14	0	0	1	0	504	503	0	1018	38	6
15	0	0	1	0	518	491	0	0	39	6
0	0	0	1	0	509	498	0	1018	39	6
1	0	0	1	0	525	498	0	0	39	6
2	0	0	1	0	508	509	0	1018	38	6
3	0	0	1	0	518	500	0	0	39	6
4	0	0	1	0	509	499	0	1018	39	6
5	0	0	1	0	518	509	0	23	39	6
6	0	0	1	0	509	510	0	1018	38	6
7	0	0	1	0	521	503	0	0	39	6
8	0	0	1	0	505	505	0	1018	39	6
9	0	0	1	0	520	515	0	0	39	6
10	0	0	1	0	509	506	0	1018	38	6
11	0	0	1	0	524	527	0	0	38	6
12	0	0	1	0	505	541	0	1018	39	6
13	0	0	1	0	525	507	0	0	39	6
14	0	0	1	0	501	502	0	1018	38	6
15	0	0	1	0	516	513	0	0	39	6
0	0	0	1	0	508	504	0	1018	39	6
1	0	0	1	0	521	545	0	0	39	6
2	0	0	1	0	505	508	0	1018	38	6
3	0	0	1	0	520	513	0	0	39	6
4	0	0	1	0	512	512	0	1018	39	6
5	0	0	1	0	527	515	0	0	39	6
6	0	0	1	0	506	523	0	1018	38	6
7	0	0	1	0	516	529	0	47	39	6
8	0	0	1	0	509	499	0	1018	39	6
9	0	0	1	0	520	542	0	0	39	6
10	0	0	1	0	508	531	0	979	38	6
11	0	0	1	0	524	514	0	0	39	6
12	0	0	1	0	510	510	0	1018	39	6
13	0	0	1	0	523	499	0	0	39	6
14	0	0	1	0	511	521	0	1018	38	6
15	0	0	1	0	518	511	0	0	39	6
0	0	0	1	0	499	514	0	1018	39	6
1	0	0	1	0	521	511	0	0	39	6
2	0	0	1	0	508	508	0	1018	38	6
3	0	0	1	0	515	535	0	0	39	6
4	0	0	1	0	515	595	0	1018	39	6
5	0	0	1	0	515	553	0	0	39	6
6	0	0	1	0	509	451	0	865	38	6
7	0	0	1	0	513	473	0	0	38	6
8	0	0	1	0	509	501	0	1018	39	6
9	0	0	1	0	509	511	0	14	39	6
10	0	0	1	0	511	515	0	1018	38	6
11	0	0	1	0	515	514	0	66	39	6
12	0	0	1	0	508	508	0	1018	39	6
13	0	0	1	0	522	539	0	0	39	6
14	0	0	1	0	509	509	0	1018	38	6
15	0	0	1	0	515	510	0	0	39	6
0	0	0	1	0	507	540	0	1018	39	6
1	0	0	1	0	520	509	0	0	39	6
2	0	0	1	0	506	496	0	1018	38	6
3	0	0	1	0	520	548	0	0	39	6
4	0	0	1	0	499	518	0	1018	39	6
5	0	0	1	0	523	536	0	0	39	6
6	0	0	1	0	513	532	0	1018	38	6
7	0	0	1	0	514	550	0	0	39	6
8	0	0	1	0	507	526	0	1018	39	6
9	0	0	1	0	519	536	0	0	39	6
10	0	0	1	0	514	550	0	1018	38	6
11	0	0	1	0	512	551	0	0	38	6
12	0	0	1	0	505	532	0	1018	39	6
13	0	0	1	0	515	499	0	0	39	6
14	0	0	1	0	505	507	0	1018	38	6
15	0	0	1	0	518	479	0	0	38	6
0	0	0	1	0	511	507	0	1018	39	6
1	0	0	1	0	516	497	0	0	39	6
2	0	0	1	0	510	497	0	1018	38	6
3	0	0	1	0	513	484	0	0	39	6
4	0	0	1	0	502	493	0	964	39	6
5	0	0	1	0	517	506	0	0	39	6
6	0	0	1	0	508	479	0	1018	38	6
7	0	0	1	0	529	499	0	0	39	6
8	0	0	1	0	517	516	0	1018	39	6
9	0	0	1	0	517	494	0	39	39	6
10	0	0	1	0	508	507	0	1018	38	6
11	0	0	1	0	522	502	0	0	39	6
12	0	0	1	0	510	515	0	1018	39	6
13	0	0	1	0	521	513	0	46	39	6
14	0	0	1	0	508	505	0	1018	38	6
15	0	0	1	0	516	512	0	101	38	6
0	0	0	1	0	506	492	0	1018	39	6
1	0	0	1	0	515	511	0	22	39	6
2	0	0	1	0	517	515	0	1018	38	6
3	0	0	1	0	519	534	0	0	39	6
4	0	0	1	0	505	527	0	1018	39	6
5	0	0	1	0	511	504	0	128	39	6
6	0	0	1	0	515	525	0	1018	38	6
7	0	0	1	0	509	509	0	0	39	6
8	0	0	1	0	511	510	0	1018	39	6
9	0	0	1	0	520	503	0	0	39	6
10	0	0	1	0	511	511	0	1018	38	6
11	0	0	1	0	519	517	0	98	39	6
12	0	0	1	0	512	519	0	1018	39	6
13	0	0	1	0	520	527	0	119	39	6
14	0	0	1	0	508	507	0	1011	38	6
15	0	0	1	0	521	519	0	0	39	6
0	0	0	1	0	501	505	0	1018	39	6
1	0	0	1	0	522	516	0	2	39	6
2	0	0	1	0	508	519	0	775	38	6
3	0	0	1	0	521	515	0	12	39	6
4	0	0	1	0	512	509	0	1018	39	6
5	0	0	1	0	519	532	0	125	39	6
6	0	0	1	0	516	520	0	1018	38	6
7	0	0	1	0	514	506	0	105	39	6
8	0	0	1	0	509	526	0	1018	39	6
9	0	0	1	0	513	523	0	105	39	6
10	0	0	1	0	503	524	0	1018	38	6
11	0	0	1	0	521	532	0	176	39	6
12	0	0	1	0	503	527	0	1018	39	6
13	0	0	1	0	526	514	0	132	39	6
14	0	0	1	0	499	489	0	940	38	6
15	0	0	1	0	524	507	0	76	39	6
0	0	0	1	0	504	512	0	1018	39	6
1	0	0	1	0	516	520	0	278	39	6
2	0	0	1	0	511	510	0	1017	38	6
3	0	0	1	0	511	497	0	62	39	6
4	0	0	1	0	508	509	0	1018	39	6
5	0	0	1	0	521	584	0	134	39	6
6	0	0	1	0	505	591	0	1018	38	6
7	0	0	1	0	516	524	0	152	39	6
8	0	0	1	0	510	432	0	1018	39	6
9	0	0	1	0	516	492	0	115	39	6
10	0	0	1	0	508	495	0	987	38	6
11	0	0	1	0	524	509	0	103	39	6
12	0	0	1	0	511	513	0	1018	39	6
13	0	0	1	0	520	521	0	419	39	6
14	0	0	1	0	508	487	0	1018	38	6
15	0	0	1	0	516	513	0	276	39	6
0	0	0	1	0	511	514	0	1018	39	6
1	0	0	1	0	518	513	0	14	39	6
2	0	0	1	0	508	529	0	1018	38	6
3	0	0	1	0	511	513	0	42	39	6
4	0	0	1	0	506	521	0	1018	39	6
5	0	0	1	0	518	527	0	69	39	6
6	0	0	1	0	512	523	0	1018	38	6
7	0	0	1	0	518	512	0	19	39	6
8	0	0	1	0	502	540	0	1017	39	6
9	0	0	1	0	526	539	0	0	39	6
10	0	0	1	0	508	532	0	1018	38	6
11	0	0	1	0	526	530	0	19	39	6
12	0	0	1	0	506	549	0	916	39	6
13	0	0	1	0	517	552	0	0	39	6
14	0	0	1	0	506	528	0	1017	38	6
15	0	0	1	0	513	512	0	34	39	6
0	0	0	1	0	513	506	0	890	39	6
1	0	0	1	0	513	485	0	10	39	6
2	0	0	1	0	508	496	0	1018	38	6
3	0	0	1	0	522	470	0	211	39	6
4	0	0	1	0	505	504	0	1018	39	6
5	0	0	1	0	518	476	0	189	39	6
6	0	0	1	0	509	495	0	1018	38	6
7	0	0	1	0	524	495	0	19	39	6
8	0	0	1	0	515	494	0	1018	39	6
9	0	0	1	0	512	491	0	133	39	6
10	0	0	1	0	509	497	0	1018	38	6
11	0	0	1	0	523	491	0	156	39	6
12	0	0	1	0	506	504	0	1012	39	6
13	0	0	1	0	520	528	0	0	39	6
14	0	0	1	0	511	507	0	1018	38	6
15	0	0	1	0	522	495	0	0	39	6
0	0	0	1	0	500	516	0	1018	39	6
1	0	0	1	0	516	507	0	0	39	6
2	0	0	1	0	508	515	0	1018	38	6
3	0	0	1	0	515	501	0	41	39	6
4	0	0	1	0	504	521	0	1018	39	6
5	0	0	1	0	512	511	0	11	39	6
6	0	0	1	0	506	512	0	1018	38	6
7	0	0	1	0	524	529	0	187	39	6
8	0	0	1	0	508	521	0	1018	39	6
9	0	0	1	0	520	526	0	121	39	6
10	0	0	1	0	508	484	0	1018	38	6
11	0	0	1	0	521	534	0	5	39	6
12	0	0	1	0	508	506	0	1018	39	6
13	0	0	1	0	512	536	0	19	39	6
14	0	0	1	0	504	497	0	1018	38	6
15	0	0	1	0	512	515	0	48	39	6
0	0	0	1	0	507	525	0	1018	39	6
1	0	0	1	0	517	504	0	0	39	6
2	0	0	1	0	507	518	0	1017	38	6
3	0	0	1	0	515	521	0	61	39	6
4	0	0	1	0	504	492	0	1018	39	6
5	0	0	1	0	523	494	0	60	39	6
6	0	0	1	0	511	529	0	964	38	6
7	0	0	1	0	521	513	0	0	39	6
8	0	0	1	0	504	523	0	1018	39	6
9	0	0	1	0	526	510	0	172	39	6
10	0	0	1	0	515	521	0	1018	38	6
11	0	0	1	0	518	519	0	44	39	6
12	0	0	1	0	516	505	0	934	39	6
13	0	0	1	0	524	521	0	13	39	6
14	0	0	1	0	509	515	0	1018	38	6
15	0	0	1	0	517	536	0	85	39	6
0	0	0	1	0	512	513	0	812	39	6
1	0	0	1	0	516	520	0	0	39	6
2	0	0	1	0	515	508	0	1018	38	6
3	0	0	1	0	516	509	0	144	39	6
4	0	0	1	0	500	555	0	981	39	7
5	0	0	1	0	519	510	0	54	39	6
6	0	0	1	0	519	500	0	915	38	7
7	0	0	1	0	515	512	0	63	39	6
8	0	0	1	0	511	521	0	1018	39	7
9	0	0	1	0	521	519	0	125	39	6
10	0	0	1	0	512	522	0	1018	38	7
11	0	0	1	0	518	504	0	106	39	7
12	0	0	1	0	510	519	0	1018	39	7
13	0	0	1	0	514	507	0	56	39	7
14	0	0	1	0	507	517	0	896	38	7
15	0	0	1	0	513	597	0	43	39	7
0	0	0	1	0	508	600	0	1018	39	7
1	0	0	1	0	521	489	0	119	39	7
2	0	0	1	0	509	431	0	771	38	7
3	0	0	1	0	512	485	0	0	39	7
4	0	0	1	0	511	512	0	1017	39	7
5	0	0	1	0	516	502	0	83	39	7
6	0	0	1	0	508	499	0	576	38	7
7	0	0	1	0	523	536	0	0	39	7
8	0	0	1	0	516	522	0	818	39	7
9	0	0	1	0	512	520	0	144	39	7
10	0	0	1	0	502	514	0	743	38	7
11	0	0	1	0	529	512	0	106	39	7
12	0	0	1	0	507	527	0	762	39	7
13	0	0	1	0	514	524	0	122	39	7
14	0	0	1	0	512	515	0	840	38	7
15	0	0	1	0	515	532	0	185	39	7
0	0	0	1	0	517	518	0	978	39	7
1	0	0	1	0	514	540	0	239	39	7
2	0	0	1	0	518	556	0	1018	38	7
3	0	0	1	0	505	521	0	311	39	7
4	0	0	1	0	511	555	0	606	39	7
5	0	0	1	0	518	532	0	84	39	7
6	0	0	1	0	511	535	0	1018	38	7
7	0	0	1	0	513	571	0	284	39	7
8	0	0	1	0	503	536	0	597	39	7
9	0	0	1	0	513	512	0	171	39	7
10	0	0	1	0	511	504	0	916	38	7
11	0	0	1	0	518	495	0	298	39	7
12	0	0	1	0	504	484	0	993	39	7
13	0	0	1	0	516	471	0	249	39	7
14	0	0	1	0	510	458	0	847	38	7
15	0	0	1	0	512	481	0	226	39	7
0	0	0	1	0	510	498	0	886	39	7
1	0	0	1	0	518	521	0	284	39	7
2	0	0	1	0	509	501	0	766	38	7
3	0	0	1	0	513	509	0	213	39	7
4	0	0	1	0	511	494	0	450	39	7
5	0	0	1	0	508	485	0	115	39	7
6	0	0	1	0	509	500	0	877	38	7
7	0	0	1	0	518	506	0	370	39	7
8	0	0	1	0	515	505	0	1017	39	7
9	0	0	1	0	524	519	0	353	39	7
10	0	0	1	0	514	508	0	962	38	7
11	0	0	1	0	516	527	0	275	39	7
12	0	0	1	0	509	496	0	966	39	7
13	0	0	1	0	519	518	0	281	39	7
14	0	0	1	0	506	505	0	682	38	7
15	0	0	1	0	512	513	0	276	39	7
0	0	0	1	0	516	513	0	923	39	7
1	0	0	1	0	515	527	0	270	39	7
2	0	0	1	0	511	512	0	929	38	7
3	0	0	1	0	510	504	0	319	39	7
4	0	0	1	0	509	513	0	714	39	7
5	0	0	1	0	515	522	0	251	39	7
6	0	0	1	0	508	516	0	497	38	7
7	0	0	1	0	519	485	0	87	38	7
8	0	0	1	0	511	530	0	652	39	7
9	0	0	1	0	519	521	0	134	39	7
10	0	0	1	0	507	534	0	992	38	7
11	0	0	1	0	518	492	0	400	39	7
12	0	0	1	0	514	510	0	486	39	7
13	0	0	1	0	513	526	0	114	39	7
14	0	0	1	0	512	512	0	619	38	7
15	0	0	1	0	521	516	0	213	39	7
0	0	0	1	0	509	556	0	774	39	7
1	0	0	1	0	512	523	0	337	39	7
2	0	0	1	0	511	504	0	318	38	7
3	0	0	1	0	515	532	0	33	39	7
4	0	0	1	0	513	506	0	690	39	7
5	0	0	1	0	519	510	0	251	39	7
6	0	0	1	0	514	518	0	464	38	7
7	0	0	1	0	518	501	0	165	39	7
8	0	0	1	0	508	511	0	521	39	7
9	0	0	1	0	515	520	0	281	39	7
10	0	0	1	0	508	508	0	734	38	7
11	0	0	1	0	518	498	0	435	39	7
12	0	0	1	0	501	508	0	1018	39	7
13	0	0	1	0	512	536	0	524	39	7
14	0	0	1	0	519	588	0	560	38	7
15	0	0	1	0	510	572	0	114	39	7
0	0	0	1	0	512	475	0	342	39	7
1	0	0	1	0	519	458	0	182	39	7
2	0	0	1	0	511	476	0	583	38	7
3	0	0	1	0	516	481	0	275	39	7
4	0	0	1	0	510	504	0	383	39	7
5	0	0	1	0	510	521	0	217	39	7
6	0	0	1	0	512	527	0	802	38	7
7	0	0	1	0	521	526	0	317	39	7
8	0	0	1	0	510	504	0	491	39	7
9	0	0	1	0	510	534	0	231	39	7
10	0	0	1	0	518	502	0	580	38	7
11	0	0	1	0	512	522	0	376	39	7
12	0	0	1	0	510	521	0	308	39	7
13	0	0	1	0	509	513	0	214	39	7
14	0	0	1	0	510	496	0	486	38	7
15	0	0	1	0	516	545	0	235	39	7
0	0	0	1	0	507	541	0	540	39	7
1	0	0	1	0	512	545	0	390	39	7
2	0	0	1	0	515	526	0	472	38	7
3	0	0	1	0	513	534	0	296	39	7
4	0	0	1	0	515	546	0	583	39	7
5	0	0	1	0	514	527	0	363	39	7
6	0	0	1	0	509	545	0	412	38	7
7	0	0	1	0	514	520	0	373	39	7
8	0	0	1	0	513	504	0	427	39	7
9	0	0	1	0	519	505	0	359	39	7
10	0	0	1	0	509	526	0	715	38	7
11	0	0	1	0	512	487	0	465	39	7
12	0	0	1	0	511	478	0	536	39	7
13	0	0	1	0	515	489	0	394	39	7
14	0	0	1	0	508	492	0	614	38	7
15	0	0	1	0	511	474	0	435	39	7
0	0	0	1	0	514	507	0	456	39	7
1	0	0	1	0	508	479	0	253	39	7
2	0	0	1	0	512	510	0	573	38	7
3	0	0	1	0	519	504	0	547	39	7
4	0	0	1	0	512	522	0	443	39	7
5	0	0	1	0	517	487	0	456	39	7
6	0	0	1	0	517	512	0	364	38	7
7	0	0	1	0	516	509	0	330	39	7
8	0	0	1	0	512	504	0	502	39	7
9	0	0	1	0	519	542	0	365	39	7
10	0	0	1	0	507	502	0	215	38	7
11	0	0	1	0	512	528	0	134	39	7
12	0	0	1	0	511	506	0	0	39	7
13	0	0	1	0	513	518	0	119	39	7
14	0	0	1	0	513	543	0	172	38	7
15	0	0	1	0	502	515	0	181	39	7
0	0	0	1	0	513	521	0	144	39	7
1	0	0	1	0	517	512	0	133	39	7
2	0	0	1	0	511	513	0	533	38	7
3	0	0	1	0	518	505	0	515	39	7
4	0	0	1	0	513	505	0	209	39	7
5	0	0	1	0	512	535	0	318	39	7
6	0	0	1	0	519	534	0	334	38	7
7	0	0	1	0	513	491	0	399	39	7
8	0	0	1	0	504	500	0	545	39	7
9	0	0	1	0	510	531	0	476	39	7
10	0	0	1	0	515	519	0	206	38	7
11	0	0	1	0	518	529	0	158	39	7
12	0	0	1	0	514	522	0	440	39	7
13	0	0	1	0	507	519	0	483	39	7
14	0	0	1	0	517	506	0	316	38	7
15	0	0	1	0	517	495	0	171	39	7
0	0	0	1	0	517	523	0	328	39	7
1	0	0	1	0	509	496	0	465	39	7
2	0	0	1	0	519	525	0	157	38	7
3	0	0	1	0	520	525	0	256	39	7
4	0	0	1	0	516	523	0	349	39	7
5	0	0	1	0	516	515	0	386	39	7
6	0	0	1	0	515	507	0	338	38	7
7	0	0	1	0	516	505	0	460	39	7
8	0	0	1	0	512	520	0	357	39	7
9	0	0	1	0	511	507	0	600	39	7
10	0	0	1	0	518	515	0	402	38	7
11	0	0	1	0	508	511	0	465	39	7
12	0	0	1	0	513	524	0	209	39	7
13	0	0	1	0	512	518	0	445	39	7
14	0	0	1	0	517	507	0	203	38	7
15	0	0	1	0	511	506	0	391	39	7
0	0	0	1	0	527	500	0	185	39	7
1	0	0	1	0	515	532	0	542	39	7
2	0	0	1	0	520	595	0	1	38	7
3	0	0	1	0	514	545	0	243	39	7
4	0	0	1	0	510	470	0	0	39	6
5	0	0	1	0	510	449	0	266	39	6
6	0	0	1	0	512	504	0	190	38	7
7	0	0	1	0	504	495	0	437	39	7
8	0	0	1	0	516	510	0	183	39	6
9	0	0	1	0	511	514	0	341	39	6
10	0	0	1	0	517	524	0	0	38	6
11	0	0	1	0	513	508	0	399	39	6
12	0	0	1	0	513	520	0	0	39	7
13	0	0	1	0	513	518	0	208	39	6
14	0	0	1	0	516	530	0	202	38	7
15	0	0	1	0	509	536	0	363	39	6
0	0	0	1	0	513	515	0	239	39	6
1	0	0	1	0	515	518	0	339	39	6
2	0	0	1	0	511	522	0	124	38	6
3	0	0	1	0	510	517	0	284	39	6
4	0	0	1	0	518	517	0	178	39	6
5	0	0	1	0	518	527	0	587	39	6
6	0	0	1	0	517	544	0	185	38	6
7	0	0	1	0	516	533	0	431	39	6
8	0	0	1	0	514	550	0	216	39	6
9	0	0	1	0	514	568	0	412	39	6
10	0	0	1	0	519	543	0	147	38	6
11	0	0	1	0	514	519	0	414	39	6
12	0	0	1	0	515	526	0	170	39	6
13	0	0	1	0	514	481	0	414	39	6
14	0	0	1	0	521	492	0	163	38	6
15	0	0	1	0	519	499	0	563	39	6
0	0	0	1	0	514	502	0	220	39	6
1	0	0	1	0	511	455	0	464	39	6
2	0	0	1	0	514	528	0	203	38	6
3	0	0	1	0	516	495	0	546	39	6
4	0	0	1	0	513	483	0	193	39	6
5	0	0	1	0	512	488	0	415	39	6
6	0	0	1	0	510	490	0	0	38	6
7	0	0	1	0	507	503	0	484	39	6
8	0	0	1	0	518	483	0	98	39	6
9	0	0	1	0	514	515	0	305	39	6
10	0	0	1	0	513	501	0	219	38	6
11	0	0	1	0	511	518	0	709	39	6
12	0	0	1	0	512	508	0	152	39	6
13	0	0	1	0	509	517	0	518	39	6
14	0	0	1	0	512	521	0	48	38	6
15	0	0	1	0	511	516	0	773	39	6
0	0	0	1	0	521	515	0	0	39	6
1	0	0	1	0	513	496	0	385	39	6
2	0	0	1	0	518	497	0	0	38	6
3	0	0	1	0	514	517	0	462	39	6
4	0	0	1	0	517	518	0	173	39	6
5	0	0	1	0	512	507	0	641	39	6
6	0	0	1	0	509	497	0	0	38	6
7	0	0	1	0	502	503	0	483	39	6
8	0	0	1	0	518	503	0	0	39	6
9	0	0	1	0	511	521	0	549	39	6
10	0	0	1	0	512	513	0	0	38	6
11	0	0	1	0	513	515	0	452	39	6
12	0	0	1	0	519	514	0	0	39	6
13	0	0	1	0	511	522	0	502	39	6
14	0	0	1	0	511	523	0	0	38	6
15	0	0	1	0	511	497	0	415	39	6
0	0	0	1	0	516	557	0	0	39	6
1	0	0	1	0	513	499	0	399	39	6
2	0	0	1	0	525	522	0	0	38	6
3	0	0	1	0	504	520	0	429	39	6
4	0	0	1	0	514	514	0	0	39	6
5	0	0	1	0	502	522	0	335	39	6
6	0	0	1	0	519	523	0	17	38	6
7	0	0	1	0	511	510	0	632	39	6
8	0	0	1	0	516	515	0	0	39	6
9	0	0	1	0	508	541	0	471	39	6
10	0	0	1	0	520	532	0	0	38	6
11	0	0	1	0	513	497	0	866	39	6
12	0	0	1	0	521	531	0	0	39	6
13	0	0	1	0	512	525	0	439	39	6
14	0	0	1	0	515	507	0	0	38	6
15	0	0	1	0	510	518	0	695	39	6
0	0	0	1	0	514	515	0	0	39	6
1	0	0	1	0	506	507	0	672	39	6
2	0	0	1	0	512	515	0	0	38	6
3	0	0	1	0	511	526	0	508	39	6
4	0	0	1	0	525	499	0	0	39	6
5	0	0	1	0	515	501	0	822	39	6
6	0	0	1	0	514	561	0	0	38	6
7	0	0	1	0	512	583	0	372	39	6
8	0	0	1	0	515	563	0	0	39	6
9	0	0	1	0	510	433	0	630	39	6
10	0	0	1	0	520	476	0	0	38	6
11	0	0	1	0	507	506	0	508	39	6
12	0	0	1	0	515	500	0	0	39	6
13	0	0	1	0	511	506	0	1018	38	6
14	0	0	1	0	515	528	0	0	38	6
15	0	0	1	0	508	519	0	551	39	6
0	0	0	1	0	514	520	0	0	39	6
1	0	0	1	0	513	504	0	362	39	6
2	0	0	1	0	524	517	0	0	38	6
3	0	0	1	0	505	527	0	586	39	6
4	0	0	1	0	522	513	0	0	39	6
5	0	0	1	0	505	521	0	597	39	6
6	0	0	1	0	518	543	0	0	38	6
7	0	0	1	0	507	511	0	339	39	6
8	0	0	1	0	519	528	0	0	39	6
9	0	0	1	0	498	522	0	514	39	6
10	0	0	1	0	525	521	0	0	38	6
11	0	0	1	0	511	537	0	687	39	6
12	0	0	1	0	517	549	0	0	39	6
13	0	0	1	0	513	531	0	690	39	6
14	0	0	1	0	520	537	0	0	38	6
15	0	0	1	0	511	544	0	1018	39	6
0	0	0	1	0	515	519	0	0	39	6
1	0	0	1	0	509	502	0	1018	38	6
2	0	0	1	0	523	481	0	0	38	6
3	0	0	1	0	513	507	0	1018	39	6
4	0	0	1	0	520	494	0	0	39	6
5	0	0	1	0	504	472	0	1018	39	6
6	0	0	1	0	519	503	0	0	38	6
7	0	0	1	0	509	486	0	656	39	6
8	0	0	1	0	516	488	0	0	39	6
9	0	0	1	0	512	493	0	874	39	6
10	0	0	1	0	519	495	0	0	38	6
11	0	0	1	0	516	524	0	588	39	6
12	0	0	1	0	521	507	0	0	39	6
13	0	0	1	0	508	486	0	457	39	6
14	0	0	1	0	520	507	0	0	38	6
15	0	0	1	0	503	513	0	631	39	6
0	0	0	1	0	519	490	0	0	39	6
1	0	0	1	0	504	525	0	375	39	6
2	0	0	1	0	516	527	0	0	38	6
3	0	0	1	0	502	509	0	376	39	6
4	0	0	1	0	521	507	0	0	39	6
5	0	0	1	0	515	508	0	563	39	6
6	0	0	1	0	516	524	0	0	38	6
7	0	0	1	0	508	499	0	461	39	6
8	0	0	1	0	525	499	0	0	39	6
9	0	0	1	0	507	534	0	738	39	6
10	0	0	1	0	521	521	0	0	38	6
11	0	0	1	0	506	508	0	520	39	6
12	0	0	1	0	522	515	0	0	39	6
13	0	0	1	0	508	501	0	391	39	6
14	0	0	1	0	524	504	0	0	38	6
15	0	0	1	0	508	512	0	560	39	6
0	0	0	1	0	522	523	0	0	39	6
1	0	0	1	0	504	513	0	778	39	6
2	0	0	1	0	514	505	0	0	38	6
3	0	0	1	0	505	507	0	800	39	6
4	0	0	1	0	527	489	0	0	39	6
5	0	0	1	0	507	524	0	1018	39	6
6	0	0	1	0	517	515	0	0	38	6
7	0	0	1	0	506	522	0	732	39	6
8	0	0	1	0	523	522	0	0	39	6
9	0	0	1	0	504	515	0	768	39	6
10	0	0	1	0	515	521	0	0	38	6
11	0	0	1	0	509	528	0	1018	38	6
12	0	0	1	0	523	498	0	0	39	6
13	0	0	1	0	511	524	0	1018	39	6
14	0	0	1	0	519	537	0	0	38	6
15	0	0	1	0	503	519	0	527	39	6
0	0	0	1	0	522	523	0	0	39	6
1	0	0	1	0	504	525	0	410	39	6
2	0	0	1	0	519	507	0	0	38	6
3	0	0	1	0	506	499	0	739	39	6
4	0	0	1	0	519	511	0	0	39	6
5	0	0	1	0	509	478	0	683	39	6
6	0	0	1	0	526	535	0	0	38	6
7	0	0	1	0	505	522	0	599	39	6
8	0	0	1	0	528	510	0	0	39	6
9	0	0	1	0	505	489	0	828	39	6
10	0	0	1	0	519	535	0	0	38	6
11	0	0	1	0	508	577	0	743	39	6
12	0	0	1	0	522	594	0	0	39	6
13	0	0	1	0	501	455	0	571	39	6
14	0	0	1	0	524	438	0	0	38	6
15	0	0	1	0	505	477	0	1018	39	6
0	0	0	1	0	522	518	0	0	39	6
1	0	0	1	0	503	500	0	1018	39	6
2	0	0	1	0	519	517	0	0	38	6
3	0	0	1	0	508	510	0	1018	38	6
4	0	0	1	0	514	534	0	0	39	6
5	0	0	1	0	508	514	0	509	39	6
6	0	0	1	0	518	524	0	0	38	6
7	0	0	1	0	508	529	0	620	39	6
8	0	0	1	0	515	530	0	0	39	6
9	0	0	1	0	511	517	0	639	39	6
10	0	0	1	0	518	540	0	0	38	6
11	0	0	1	0	501	507	0	483	39	6
12	0	0	1	0	524	530	0	0	39	6
13	0	0	1	0	503	507	0	430	39	6
14	0	0	1	0	515	551	0	0	38	6
15	0	0	1	0	507	543	0	517	39	6
0	0	0	1	0	521	547	0	0	39	6
1	0	0	1	0	504	529	0	566	39	6
2	0	0	1	0	525	544	0	0	38	6
3	0	0	1	0	503	529	0	473	39	6
4	0	0	1	0	519	537	0	0	39	6
5	0	0	1	0	507	511	0	789	39	6
6	0	0	1	0	516	493	0	0	38	6
7	0	0	1	0	504	500	0	751	39	6
8	0	0	1	0	519	488	0	0	39	6
9	0	0	1	0	503	492	0	1018	39	6
10	0	0	1	0	521	481	0	0	38	6
11	0	0	1	0	504	470	0	568	39	6
12	0	0	1	0	526	510	0	0	39	6
13	0	0	1	0	505	485	0	621	39	6
14	0	0	1	0	521	491	0	0	38	6
15	0	0	1	0	504	499	0	520	39	6
0	0	0	1	0	519	503	0	12	39	6
1	0	0	1	0	508	504	0	783	39	6
2	0	0	1	0	518	486	0	31	38	6
3	0	0	1	0	500	498	0	1018	38	6
4	0	0	1	0	522	524	0	33	39	6
5	0	0	1	0	507	527	0	810	39	6
6	0	0	1	0	528	525	0	9	38	6
7	0	0	1	0	502	530	0	659	39	6
8	0	0	1	0	523	506	0	2	39	6
9	0	0	1	0	512	495	0	629	39	6
10	0	0	1	0	523	516	0	28	38	6
11	0	0	1	0	508	528	0	625	39	6
12	0	0	1	0	524	526	0	39	39	6
13	0	0	1	0	504	527	0	1018	39	6
14	0	0	1	0	515	510	0	49	38	6
15	0	0	1	0	507	498	0	1018	38	6
0	0	0	1	0	522	499	0	0	39	6
1	0	0	1	0	508	507	0	783	39	6
2	0	0	1	0	520	519	0	0	38	6
3	0	0	1	0	506	518	0	598	39	6
4	0	0	1	0	526	514	0	0	39	6
5	0	0	1	0	504	533	0	417	39	6
6	0	0	1	0	519	510	0	2	38	6
7	0	0	1	0	509	507	0	436	39	6
8	0	0	1	0	517	523	0	48	39	6
9	0	0	1	0	510	521	0	430	39	6
10	0	0	1	0	524	513	0	87	38	6
11	0	0	1	0	501	520	0	490	39	6
12	0	0	1	0	519	516	0	126	39	6
13	0	0	1	0	502	519	0	653	39	6
14	0	0	1	0	518	544	0	146	38	6
15	0	0	1	0	509	504	0	873	39	6
0	0	0	1	0	520	505	0	160	39	6
1	0	0	1	0	505	508	0	572	39	6
2	0	0	1	0	517	525	0	153	38	6
3	0	0	1	0	497	504	0	881	39	6
4	0	0	1	0	522	513	0	162	39	6
5	0	0	1	0	504	499	0	843	39	6
6	0	0	1	0	520	516	0	147	38	6
7	0	0	1	0	500	506	0	1018	39	6
8	0	0	1	0	512	569	0	121	39	6
9	0	0	1	0	504	602	0	660	39	6
10	0	0	1	0	526	540	0	111	38	6
11	0	0	1	0	504	403	0	1018	38	6
12	0	0	1	0	520	463	0	111	39	6
13	0	0	1	0	503	486	0	1018	38	6
14	0	0	1	0	519	515	0	56	38	6
15	0	0	1	0	503	527	0	1018	39	6
0	0	0	1	0	519	502	0	0	39	6
1	0	0	1	0	503	524	0	1018	38	6
2	0	0	1	0	521	526	0	0	38	6
3	0	0	1	0	505	515	0	1018	39	6
4	0	0	1	0	524	531	0	0	39	6
5	0	0	1	0	502	523	0	1018	39	6
6	0	0	1	0	525	513	0	0	38	6
7	0	0	1	0	505	548	0	1018	39	6
8	0	0	1	0	522	527	0	0	39	6
9	0	0	1	0	508	530	0	1018	39	6
10	0	0	1	0	526	535	0	0	38	6
11	0	0	1	0	503	505	0	1018	39	6
12	0	0	1	0	515	549	0	0	39	6
13	0	0	1	0	502	556	0	743	39	6
14	0	0	1	0	523	560	0	0	38	6
15	0	0	1	0	506	545	0	572	39	6
0	0	0	1	0	524	543	0	0	39	6
1	0	0	1	0	508	543	0	564	39	6
2	0	0	1	0	519	536	0	0	38	6
3	0	0	1	0	503	505	0	503	39	6
4	0	0	1	0	520	501	0	0	39	6
5	0	0	1	0	508	495	0	119	39	6
6	0	0	1	0	525	487	0	0	38	6
7	0	0	1	0	501	473	0	56	39	6
8	0	0	1	0	531	478	0	0	39	6
9	0	0	1	0	510	491	0	221	39	6
10	0	0	1	0	516	486	0	0	38	6
11	0	0	1	0	502	507	0	106	38	6
12	0	0	1	0	519	482	0	0	39	6
13	0	0	1	0	500	494	0	313	39	6
14	0	0	1	0	528	485	0	45	38	6
15	0	0	1	0	502	498	0	300	39	6
0	0	0	1	0	521	488	0	114	39	6
1	0	0	1	0	506	489	0	355	39	6
2	0	0	1	0	519	536	0	177	38	6
3	0	0	1	0	504	504	0	407	39	6
4	0	0	1	0	524	514	0	237	39	6
5	0	0	1	0	506	520	0	515	39	6
6	0	0	1	0	519	517	0	284	38	6
7	0	0	1	0	512	495	0	503	39	6
8	0	0	1	0	528	503	0	321	39	6
9	0	0	1	0	505	532	0	486	39	6
10	0	0	1	0	526	500	0	359	38	6
11	0	0	1	0	507	531	0	694	39	6
12	0	0	1	0	524	504	0	388	39	6
13	0	0	1	0	508	506	0	890	39	6
14	0	0	1	0	525	516	0	387	38	6
15	0	0	1	0	502	518	0	811	39	6
0	0	0	1	0	520	513	0	371	39	6
1	0	0	1	0	507	503	0	821	39	6
2	0	0	1	0	526	534	0	364	38	6
3	0	0	1	0	494	524	0	1018	39	6
4	0	0	1	0	521	537	0	355	39	6
5	0	0	1	0	504	488	0	1018	39	6
6	0	0	1	0	521	543	0	321	38	6
7	0	0	1	0	506	527	0	1018	39	6
8	0	0	1	0	525	519	0	278	39	6
9	0	0	1	0	507	493	0	612	39	6
10	0	0	1	0	521	533	0	262	38	6
11	0	0	1	0	512	505	0	1018	39	6
12	0	0	1	0	521	508	0	262	39	6
13	0	0	1	0	510	501	0	1018	39	6
14	0	0	1	0	524	503	0	191	38	6
15	0	0	1	0	512	507	0	1018	39	6
0	0	0	1	0	524	521	0	103	39	6
1	0	0	1	0	506	565	0	1018	39	6
2	0	0	1	0	524	594	0	60	38	6
3	0	0	1	0	506	531	0	1018	39	6
4	0	0	1	0	515	421	0	15	39	5
5	0	0	1	0	507	440	0	1018	39	6
6	0	0	1	0	521	502	0	1	38	6
7	0	0	1	0	508	498	0	1018	39	6
8	0	0	1	0	523	533	0	0	39	5
9	0	0	1	0	509	516	0	1018	38	5
10	0	0	1	0	529	519	0	0	38	5
11	0	0	1	0	501	520	0	1018	39	5
12	0	0	1	0	522	525	0	0	39	5
13	0	0	1	0	513	534	0	1018	39	5
14	0	0	1	0	521	502	0	0	38	5
15	0	0	1	0	502	544	0	1018	38	5
0	0	0	1	0	520	526	0	0	39	5
1	0	0	1	0	501	534	0	1018	39	5
2	0	0	1	0	519	528	0	0	38	5
3	0	0	1	0	511	519	0	1018	38	5
4	0	0	1	0	521	531	0	0	39	5
5	0	0	1	0	503	524	0	1018	39	5
6	0	0	1	0	518	529	0	0	38	5
7	0	0	1	0	508	554	0	1018	39	5
8	0	0	1	0	527	549	0	0	39	5
9	0	0	1	0	510	552	0	1018	39	5
10	0	0	1	0	521	532	0	0	38	5
11	0	0	1	0	510	527	0	1018	39	5
12	0	0	1	0	525	510	0	0	39	5
13	0	0	1	0	504	502	0	513	39	5
14	0	0	1	0	517	489	0	0	38	5
15	0	0	1	0	497	486	0	1018	39	5
0	0	0	1	0	520	475	0	0	39	5
1	0	0	1	0	508	481	0	1018	39	5
2	0	0	1	0	518	480	0	0	38	5
3	0	0	1	0	516	471	0	1018	38	5
4	0	0	1	0	520	503	0	0	39	5
5	0	0	1	0	504	518	0	1018	39	5
6	0	0	1	0	520	490	0	0	38	5
7	0	0	1	0	505	494	0	1018	39	5
8	0	0	1	0	518	508	0	0	39	5
9	0	0	1	0	507	495	0	1018	39	5
10	0	0	1	0	525	508	0	0	38	5
11	0	0	1	0	507	526	0	1018	38	5
12	0	0	1	0	528	519	0	0	39	5
13	0	0	1	0	513	506	0	1018	39	5
14	0	0	1	0	524	507	0	0	38	5
15	0	0	1	0	510	504	0	1018	39	5
0	0	0	1	0	519	510	0	0	39	5
1	0	0	1	0	503	511	0	1018	39	5
2	0	0	1	0	514	536	0	0	38	5
3	0	0	1	0	511	480	0	1018	39	5
4	0	0	1	0	525	515	0	0	39	5
5	0	0	1	0	504	531	0	1018	38	5
6	0	0	1	0	521	512	0	0	38	5
7	0	0	1	0	507	511	0	1018	39	5
8	0	0	1	0	516	510	0	0	39	5
9	0	0	1	0	503	492	0	1018	39	5
10	0	0	1	0	527	525	0	0	38	5
11	0	0	1	0	499	535	0	1018	39	5
12	0	0	1	0	522	489	0	0	39	5
13	0	0	1	0	510	521	0	1018	39	5
14	0	0	1	0	523	532	0	0	38	5
15	0	0	1	0	511	521	0	1018	39	5
0	0	0	1	0	519	541	0	0	39	5
1	0	0	1	0	504	521	0	1018	39	5
2	0	0	1	0	514	526	0	0	38	5
3	0	0	1	0	508	496	0	1018	39	5
4	0	0	1	0	520	527	0	0	39	5
5	0	0	1	0	513	489	0	1018	39	5
6	0	0	1	0	521	538	0	0	38	5
7	0	0	1	0	505	513	0	1018	39	5
8	0	0	1	0	522	506	0	0	39	5
9	0	0	1	0	504	498	0	1018	39	5
10	0	0	1	0	521	520	0	0	38	5
11	0	0	1	0	507	579	0	1018	39	5
12	0	0	1	0	519	593	0	0	39	5
13	0	0	1	0	511	460	0	1018	39	5
14	0	0	1	0	524	445	0	0	38	5
15	0	0	1	0	508	482	0	1018	39	5
0	0	0	1	0	511	510	0	0	39	5
1	0	0	1	0	510	503	0	1018	39	5
2	0	0	1	0	518	513	0	0	38	5
3	0	0	1	0	511	515	0	1018	39	5
4	0	0	1	0	519	512	0	0	39	5
5	0	0	1	0	504	507	0	1018	38	5
6	0	0	1	0	511	549	0	0	38	5
7	0	0	1	0	499	519	0	1018	39	5
8	0	0	1	0	515	521	0	0	39	5
9	0	0	1	0	505	521	0	1018	39	5
10	0	0	1	0	508	521	0	0	38	5
11	0	0	1	0	511	526	0	1018	39	5
12	0	0	1	0	526	538	0	0	39	5
13	0	0	1	0	499	540	0	1018	39	5
14	0	0	1	0	516	546	0	0	38	5
15	0	0	1	0	508	537	0	1018	39	5
0	0	0	1	0	518	531	0	0	39	5
1	0	0	1	0	505	535	0	1018	39	5
2	0	0	1	0	514	543	0	0	38	5
3	0	0	1	0	511	556	0	1018	39	5
4	0	0	1	0	520	525	0	0	39	5
5	0	0	1	0	506	527	0	1018	39	5
6	0	0	1	0	520	530	0	0	38	5
7	0	0	1	0	505	481	0	1018	39	5
8	0	0	1	0	522	504	0	0	39	5
9	0	0	1	0	508	469	0	1018	38	5
10	0	0	1	0	520	485	0	0	38	5
11	0	0	1	0	512	476	0	1018	39	5
12	0	0	1	0	516	492	0	0	39	5
13	0	0	1	0	509	506	0	1018	39	5
14	0	0	1	0	524	494	0	0	38	5
15	0	0	1	0	509	490	0	1018	38	5
0	0	0	1	0	520	496	0	0	39	5
1	0	0	1	0	502	499	0	1018	39	5
2	0	0	1	0	523	491	0	0	38	5
3	0	0	1	0	513	501	0	1018	39	5
4	0	0	1	0	518	513	0	0	39	5
5	0	0	1	0	510	536	0	1018	38	5
6	0	0	1	0	516	515	0	0	38	5
7	0	0	1	0	511	507	0	1018	39	5
8	0	0	1	0	515	500	0	0	39	5
9	0	0	1	0	507	515	0	1018	39	5
10	0	0	1	0	521	507	0	0	38	5
11	0	0	1	0	508	501	0	1018	38	5
12	0	0	1	0	521	525	0	0	39	5
13	0	0	1	0	509	508	0	1018	39	5
14	0	0	1	0	516	520	0	0	38	5
15	0	0	1	0	513	502	0	1018	39	5
0	0	0	1	0	517	522	0	0	39	5
1	0	0	1	0	508	522	0	1018	39	5
2	0	0	1	0	527	523	0	0	38	5
3	0	0	1	0	499	503	0	1018	39	5
4	0	0	1	0	513	524	0	0	39	5
5	0	0	1	0	504	521	0	1018	39	5
6	0	0	1	0	520	534	0	0	38	5
7	0	0	1	0	510	499	0	1018	39	5
8	0	0	1	0	524	530	0	0	39	5
9	0	0	1	0	510	523	0	1018	38	5
10	0	0	1	0	515	524	0	0	38	5
11	0	0	1	0	508	503	0	1018	39	5
12	0	0	1	0	516	531	0	0	39	5
13	0	0	1	0	505	507	0	1018	39	5
14	0	0	1	0	518	494	0	0	38	5
15	0	0	1	0	514	520	0	1018	39	5
0	0	0	1	0	515	519	0	0	39	5
1	0	0	1	0	496	508	0	1018	39	5
2	0	0	1	0	519	504	0	0	38	5
3	0	0	1	0	506	508	0	1018	39	5
4	0	0	1	0	520	552	0	0	39	5
5	0	0	1	0	506	585	0	1018	39	5
6	0	0	1	0	513	551	0	0	38	5
7	0	0	1	0	502	448	0	1018	39	5
8	0	0	1	0	520	454	0	0	39	5
9	0	0	1	0	511	480	0	1018	39	5
10	0	0	1	0	522	524	0	0	38	5
11	0	0	1	0	512	521	0	1018	39	5
12	0	0	1	0	517	511	0	0	39	5
13	0	0	1	0	500	530	0	1018	38	5
14	0	0	1	0	526	516	0	0	38	5
15	0	0	1	0	500	527	0	1018	39	5
0	0	0	1	0	518	532	0	0	39	5
1	0	0	1	0	505	539	0	1018	38	5
2	0	0	1	0	518	519	0	0	38	5
3	0	0	1	0	508	540	0	1018	38	5
4	0	0	1	0	515	529	0	0	39	5
5	0	0	1	0	496	509	0	1018	39	5
6	0	0	1	0	525	551	0	0	38	5
7	0	0	1	0	512	537	0	1018	39	5
8	0	0	1	0	516	539	0	0	39	5
9	0	0	1	0	507	547	0	1018	39	5
10	0	0	1	0	520	554	0	0	38	5
11	0	0	1	0	509	553	0	1018	39	5
12	0	0	1	0	520	569	0	0	39	5
13	0	0	1	0	511	502	0	1018	39	5
14	0	0	1	0	523	518	0	0	38	5
15	0	0	1	0	510	512	0	775	39	5
0	0	0	1	0	525	485	0	0	39	5
1	0	0	1	0	515	484	0	1018	39	5
2	0	0	1	0	521	502	0	0	38	5
3	0	0	1	0	510	452	0	1018	39	5
4	0	0	1	0	518	480	0	0	39	5
5	0	0	1	0	507	511	0	1018	39	5
6	0	0	1	0	518	468	0	0	38	5
7	0	0	1	0	504	494	0	1018	39	5
8	0	0	1	0	518	513	0	0	39	5
9	0	0	1	0	504	487	0	1018	38	5
10	0	0	1	0	521	500	0	0	38	5
11	0	0	1	0	510	508	0	1018	39	5
12	0	0	1	0	515	492	0	0	39	5
13	0	0	1	0	509	470	0	1018	39	5
14	0	0	1	0	519	515	0	0	38	5
15	0	0	1	0	506	508	0	1018	39	5
0	0	0	1	0	519	514	0	0	39	5
1	0	0	1	0	514	512	0	1018	38	5
2	0	0	1	0	524	516	0	0	38	6
3	0	0	1	0	511	499	0	1018	39	6
4	0	0	1	0	516	511	0	0	39	6
5	0	0	1	0	504	491	0	1018	39	6
6	0	0	1	0	519	524	0	0	38	6
7	0	0	1	0	516	509	0	1018	38	6
8	0	0	1	0	524	519	0	0	39	6
9	0	0	1	0	511	533	0	1018	38	6
10	0	0	1	0	523	517	0	0	38	5
11	0	0	1	0	518	503	0	1018	39	6
12	0	0	1	0	520	518	0	0	39	6
13	0	0	1	0	513	521	0	1018	38	6
14	0	0	1	0	522	527	0	0	38	6
15	0	0	1	0	511	516	0	1018	39	6
0	0	0	1	0	514	547	0	0	39	6
1	0	0	1	0	503	526	0	1018	39	6
2	0	0	1	0	510	529	0	0	38	6
3	0	0	1	0	508	514	0	1018	39	6
4	0	0	1	0	516	505	0	0	39	6
5	0	0	1	0	510	517	0	1018	39	6
6	0	0	1	0	521	513	0	0	38	6
7	0	0	1	0	507	487	0	1018	39	6
8	0	0	1	0	520	519	0	0	39	6
9	0	0	1	0	506	514	0	1018	39	6
10	0	0	1	0	513	494	0	0	38	6
11	0	0	1	0	505	561	0	1018	38	6
12	0	0	1	0	520	593	0	0	39	6
13	0	0	1	0	505	544	0	1018	39	6
14	0	0	1	0	524	440	0	0	38	6
15	0	0	1	0	508	476	0	1018	39	6
0	0	0	1	0	526	492	0	0	39	6
1	0	0	1	0	510	521	0	1018	39	6
2	0	0	1	0	512	520	0	0	38	6
3	0	0	1	0	502	505	0	1018	39	6
4	0	0	1	0	512	514	0	0	39	6
5	0	0	1	0	510	506	0	1018	39	6
6	0	0	1	0	523	531	0	0	38	6
7	0	0	1	0	513	511	0	1018	39	6
8	0	0	1	0	520	522	0	0	39	6
9	0	0	1	0	503	508	0	1018	39	6
10	0	0	1	0	525	519	0	0	38	6
11	0	0	1	0	505	520	0	1018	39	6
12	0	0	1	0	514	540	0	0	39	6
13	0	0	1	0	508	529	0	1018	39	6
14	0	0	1	0	511	548	0	0	38	6
15	0	0	1	0	509	535	0	1018	39	6
0	0	0	1	0	518	549	0	0	39	6
1	0	0	1	0	505	516	0	1018	39	6
2	0	0	1	0	513	551	0	0	38	6
3	0	0	1	0	507	539	0	1018	39	6
4	0	0	1	0	515	518	0	0	39	6
5	0	0	1	0	508	530	0	1018	39	6
6	0	0	1	0	517	499	0	0	38	6
7	0	0	1	0	509	512	0	1018	38	6
8	0	0	1	0	511	502	0	0	39	6
9	0	0	1	0	509	495	0	1018	39	6
10	0	0	1	0	515	495	0	0	38	6
11	0	0	1	0	515	472	0	1018	39	6
12	0	0	1	0	522	503	0	0	39	6
13	0	0	1	0	504	491	0	1018	38	6
14	0	0	1	0	520	482	0	0	38	6
15	0	0	1	0	509	496	0	1018	39	6
0	0	0	1	0	519	481	0	0	39	6
1	0	0	1	0	504	467	0	1018	39	6
2	0	0	1	0	512	513	0	0	38	6
3	0	0	1	0	510	504	0	1018	38	6
4	0	0	1	0	519	518	0	0	39	6
5	0	0	1	0	504	502	0	1018	39	6
6	0	0	1	0	523	504	0	0	38	6
7	0	0	1	0	504	498	0	1018	39	6
8	0	0	1	0	523	507	0	0	39	6
9	0	0	1	0	508	508	0	1018	38	6
10	0	0	1	0	520	507	0	0	38	6
11	0	0	1	0	500	510	0	1018	39	6
12	0	0	1	0	523	540	0	0	39	6
13	0	0	1	0	506	504	0	1018	39	6
14	0	0	1	0	529	516	0	0	38	6
15	0	0	1	0	506	514	0	1018	39	6
0	0	0	1	0	520	517	0	0	39	6
1	0	0	1	0	512	527	0	1018	39	6
2	0	0	1	0	519	511	0	0	38	6
3	0	0	1	0	506	529	0	1018	39	6
4	0	0	1	0	521	487	0	0	39	6
5	0	0	1	0	501	510	0	1018	38	6
6	0	0	1	0	521	509	0	0	38	6
7	0	0	1	0	510	516	0	1018	39	6
8	0	0	1	0	521	531	0	0	39	6
9	0	0	1	0	510	520	0	1018	39	6
10	0	0	1	0	520	536	0	0	38	6
11	0	0	1	0	514	521	0	1018	39	6
12	0	0	1	0	521	541	0	0	39	6
13	0	0	1	0	506	511	0	1018	39	6
14	0	0	1	0	525	522	0	0	38	6
15	0	0	1	0	517	511	0	1018	38	6
0	0	0	1	0	520	498	0	0	39	6
1	0	0	1	0	502	518	0	1018	39	6
2	0	0	1	0	519	515	0	0	38	6
3	0	0	1	0	504	513	0	1018	39	6
4	0	0	1	0	517	506	0	0	39	6
5	0	0	1	0	511	518	0	1018	39	6
6	0	0	1	0	525	514	0	0	38	6
7	0	0	1	0	506	564	0	1018	39	6
8	0	0	1	0	519	600	0	0	39	6
9	0	0	1	0	508	534	0	1018	38	6
10	0	0	1	0	514	438	0	0	38	6
11	0	0	1	0	513	473	0	1018	39	6
12	0	0	1	0	520	502	0	0	39	6
13	0	0	1	0	507	517	0	1018	39	6
14	0	0	1	0	511	496	0	0	38	6
15	0	0	1	0	513	525	0	1018	39	6
0	0	0	1	0	524	511	0	0	39	6
1	0	0	1	0	505	511	0	1018	39	6
2	0	0	1	0	518	501	0	0	38	6
3	0	0	1	0	508	547	0	1018	39	6
4	0	0	1	0	519	515	0	0	39	6
5	0	0	1	0	511	520	0	1018	39	6
6	0	0	1	0	521	533	0	0	38	6
7	0	0	1	0	512	510	0	1018	39	6
8	0	0	1	0	510	529	0	0	39	6
9	0	0	1	0	513	534	0	1018	38	6
10	0	0	1	0	522	524	0	0	38	6
11	0	0	1	0	505	538	0	1018	39	6
12	0	0	1	0	521	551	0	0	39	6
13	0	0	1	0	504	542	0	1018	39	6
14	0	0	1	0	514	532	0	0	38	6
15	0	0	1	0	504	532	0	1018	39	6
0	0	0	1	0	510	548	0	0	39	6
1	0	0	1	0	506	531	0	1018	39	6
2	0	0	1	0	518	508	0	0	38	6
3	0	0	1	0	508	504	0	1018	39	6
4	0	0	1	0	517	497	0	0	39	6
5	0	0	1	0	509	488	0	1018	39	6
6	0	0	1	0	514	474	0	0	38	6
7	0	0	1	0	503	482	0	1018	39	6
8	0	0	1	0	521	487	0	0	39	6
9	0	0	1	0	511	478	0	1018	39	6
10	0	0	1	0	516	494	0	0	38	6
11	0	0	1	0	509	488	0	1018	39	6
12	0	0	1	0	520	518	0	0	39	6
13	0	0	1	0	499	483	0	1018	39	6
14	0	0	1	0	515	504	0	0	38	6
15	0	0	1	0	504	512	0	1018	39	6
0	0	0	1	0	517	513	0	0	39	6
1	0	0	1	0	505	499	0	1018	39	6
2	0	0	1	0	520	521	0	0	38	6
3	0	0	1	0	509	524	0	1018	39	6
4	0	0	1	0	522	505	0	0	39	6
5	0	0	1	0	512	508	0	1018	39	6
6	0	0	1	0	516	519	0	95	38	6
7	0	0	1	0	508	528	0	1018	39	6
8	0	0	1	0	516	526	0	0	39	6
9	0	0	1	0	504	499	0	1018	39	6
10	0	0	1	0	524	505	0	37	38	6
11	0	0	1	0	508	536	0	1018	39	6
12	0	0	1	0	525	513	0	0	39	6
13	0	0	1	0	511	511	0	1018	39	6
14	0	0	1	0	519	536	0	0	38	6
15	0	0	1	0	502	509	0	1018	39	6
0	0	0	1	0	521	525	0	0	39	6
1	0	0	1	0	510	509	0	1018	39	6
2	0	0	1	0	523	508	0	0	38	6
3	0	0	1	0	508	516	0	1018	39	6
4	0	0	1	0	519	509	0	0	39	6
5	0	0	1	0	509	515	0	1018	39	6
6	0	0	1	0	519	512	0	0	38	6
7	0	0	1	0	513	502	0	1018	39	6
8	0	0	1	0	522	536	0	0	39	6
9	0	0	1	0	504	518	0	1018	39	6
10	0	0	1	0	519	515	0	0	38	6
11	0	0	1	0	508	516	0	1018	39	6
12	0	0	1	0	522	544	0	1	39	6
13	0	0	1	0	508	523	0	1018	39	6
14	0	0	1	0	520	509	0	0	38	6
15	0	0	1	0	511	498	0	1018	39	6
0	0	0	1	0	519	535	0	0	39	6
1	0	0	1	0	504	498	0	1018	39	6
2	0	0	1	0	519	512	0	0	38	6
3	0	0	1	0	507	506	0	1018	39	6
4	0	0	1	0	517	501	0	33	39	6
5	0	0	1	0	507	515	0	1018	39	6
6	0	0	1	0	517	504	0	0	38	6
7	0	0	1	0	507	577	0	1018	39	6
8	0	0	1	0	519	588	0	16	39	6
9	0	0	1	0	518	540	0	1018	38	6
10	0	0	1	0	523	437	0	0	38	6
11	0	0	1	0	508	455	0	1018	39	6
12	0	0	1	0	523	519	0	0	39	6
13	0	0	1	0	505	499	0	1018	39	6
14	0	0	1	0	519	505	0	0	38	6
15	0	0	1	0	501	522	0	1018	38	6
0	0	0	1	0	519	530	0	0	39	6
1	0	0	1	0	511	509	0	1018	39	6
2	0	0	1	0	516	511	0	0	38	6
3	0	0	1	0	507	525	0	1018	39	6
4	0	0	1	0	520	514	0	0	39	6
5	0	0	1	0	503	520	0	1018	39	6
6	0	0	1	0	515	526	0	0	38	6
7	0	0	1	0	506	508	0	1018	39	6
8	0	0	1	0	518	537	0	0	39	6
9	0	0	1	0	500	513	0	1018	39	6
10	0	0	1	0	513	536	0	0	38	6
11	0	0	1	0	502	541	0	1018	39	6
12	0	0	1	0	515	541	0	0	39	6
13	0	0	1	0	515	544	0	1018	38	6
14	0	0	1	0	524	547	0	0	38	6
15	0	0	1	0	509	540	0	1018	39	6
0	0	0	1	0	516	535	0	0	39	6
1	0	0	1	0	502	538	0	1018	39	6
2	0	0	1	0	524	520	0	0	38	6
3	0	0	1	0	508	481	0	1018	39	6
4	0	0	1	0	516	493	0	2	39	6
5	0	0	1	0	515	458	0	1018	39	6
6	0	0	1	0	515	487	0	0	38	6
7	0	0	1	0	512	501	0	786	39	6
8	0	0	1	0	515	487	0	0	39	6
9	0	0	1	0	513	484	0	1018	39	6
10	0	0	1	0	524	511	0	35	38	6
11	0	0	1	0	506	490	0	1018	39	6
12	0	0	1	0	515	487	0	0	39	6
13	0	0	1	0	511	494	0	1018	38	6
14	0	0	1	0	519	499	0	15	38	6
15	0	0	1	0	507	495	0	1018	39	6
0	0	0	1	0	513	509	0	13	39	6
1	0	0	1	0	516	512	0	1018	39	6
2	0	0	1	0	512	518	0	100	38	6
3	0	0	1	0	506	499	0	1018	39	6
4	0	0	1	0	517	510	0	0	39	6
5	0	0	1	0	507	528	0	1018	39	6
6	0	0	1	0	524	509	0	58	38	6
7	0	0	1	0	506	506	0	1018	39	6
8	0	0	1	0	517	520	0	0	39	6
9	0	0	1	0	512	520	0	1018	39	6
10	0	0	1	0	519	541	0	96	38	6
11	0	0	1	0	511	497	0	1018	39	6
12	0	0	1	0	523	520	0	0	39	6
13	0	0	1	0	505	505	0	1018	39	6
14	0	0	1	0	511	525	0	0	38	6
15	0	0	1	0	510	515	0	842	39	6
0	0	0	1	0	516	512	0	0	39	6
1	0	0	1	0	510	503	0	817	39	6
2	0	0	1	0	521	513	0	0	38	6
3	0	0	1	0	507	538	0	1018	38	6
4	0	0	1	0	512	518	0	0	39	6
5	0	0	1	0	507	516	0	1018	39	6
6	0	0	1	0	515	531	0	0	38	6
7	0	0	1	0	507	537	0	1018	39	6
8	0	0	1	0	521	527	0	35	39	6
9	0	0	1	0	511	503	0	1018	39	6
10	0	0	1	0	522	496	0	10	38	6
11	0	0	1	0	504	520	0	1018	39	6
12	0	0	1	0	513	507	0	28	39	6
13	0	0	1	0	508	524	0	1018	39	6
14	0	0	1	0	519	532	0	0	38	6
15	0	0	1	0	503	496	0	1018	39	6
0	0	0	1	0	512	509	0	0	39	6
1	0	0	1	0	512	516	0	1018	39	6
2	0	0	1	0	521	594	0	0	38	6
3	0	0	1	0	508	597	0	952	39	6
4	0	0	1	0	515	488	0	0	39	6
5	0	0	1	0	502	441	0	1018	39	6
6	0	0	1	0	513	490	0	0	38	6
7	0	0	1	0	506	504	0	1018	39	6
8	0	0	1	0	517	519	0	79	39	6
9	0	0	1	0	506	535	0	896	39	6
10	0	0	1	0	517	505	0	0	38	6
11	0	0	1	0	506	518	0	1018	39	6
12	0	0	1	0	525	512	0	105	39	6
13	0	0	1	0	504	525	0	948	39	6
14	0	0	1	0	516	515	0	0	38	6
15	0	0	1	0	508	523	0	1018	39	6
0	0	0	1	0	521	521	0	2	39	6
1	0	0	1	0	508	506	0	1018	38	6
2	0	0	1	0	520	531	0	78	38	6
3	0	0	1	0	508	519	0	1018	38	6
4	0	0	1	0	514	528	0	0	39	6
5	0	0	1	0	510	531	0	1018	39	6
6	0	0	1	0	526	535	0	47	38	6
7	0	0	1	0	507	547	0	1018	39	6
8	0	0	1	0	518	563	0	201	39	6
9	0	0	1	0	503	539	0	1018	38	6
10	0	0	1	0	518	545	0	249	38	6
11	0	0	1	0	509	513	0	982	39	6
12	0	0	1	0	517	509	0	0	39	6
13	0	0	1	0	510	508	0	1018	39	6
14	0	0	1	0	516	500	0	47	38	6
15	0	0	1	0	502	506	0	735	39	6
0	0	0	1	0	515	479	0	0	39	6
1	0	0	1	0	507	486	0	1018	39	6
2	0	0	1	0	517	492	0	56	38	6
3	0	0	1	0	512	482	0	1018	39	6
4	0	0	1	0	516	494	0	201	39	6
5	0	0	1	0	513	482	0	1018	39	6
6	0	0	1	0	519	513	0	50	38	6
7	0	0	1	0	516	493	0	1016	39	6
8	0	0	1	0	517	505	0	0	39	6
9	0	0	1	0	503	520	0	1018	39	6
10	0	0	1	0	514	508	0	115	38	6
11	0	0	1	0	508	506	0	1018	39	6
12	0	0	1	0	520	508	0	316	39	6
13	0	0	1	0	510	510	0	1018	39	6
14	0	0	1	0	511	504	0	0	38	6
15	0	0	1	0	508	503	0	1013	39	6
0	0	0	1	0	525	513	0	0	39	6
1	0	0	1	0	509	519	0	1018	39	6
2	0	0	1	0	514	513	0	0	38	6
3	0	0	1	0	509	514	0	927	39	6
4	0	0	1	0	512	507	0	0	39	6
5	0	0	1	0	514	519	0	1018	38	6
6	0	0	1	0	518	525	0	255	38	6
7	0	0	1	0	510	508	0	842	39	6
8	0	0	1	0	516	528	0	0	39	6
9	0	0	1	0	511	511	0	1018	38	6
10	0	0	1	0	511	515	0	178	38	6
11	0	0	1	0	507	515	0	1018	39	6
12	0	0	1	0	516	560	0	45	39	6
13	0	0	1	0	505	498	0	279	39	6
14	0	0	1	0	518	523	0	0	38	6
15	0	0	1	0	506	507	0	559	39	6
0	0	0	1	0	519	515	0	0	39	6
1	0	0	1	0	513	496	0	1016	39	6
2	0	0	1	0	510	532	0	72	38	6
3	0	0	1	0	495	518	0	1017	39	6
4	0	0	1	0	516	538	0	186	39	6
5	0	0	1	0	510	543	0	429	39	6
6	0	0	1	0	511	502	0	0	38	6
7	0	0	1	0	504	512	0	1018	39	6
8	0	0	1	0	515	530	0	295	39	6
9	0	0	1	0	509	525	0	1018	39	6
10	0	0	1	0	512	540	0	165	38	6
11	0	0	1	0	513	524	0	781	39	6
12	0	0	1	0	511	499	0	0	39	6
13	0	0	1	0	505	509	0	764	39	6
14	0	0	1	0	523	493	0	57	38	6
15	0	0	1	0	509	505	0	1018	39	6
0	0	0	1	0	516	520	0	253	39	6
1	0	0	1	0	510	503	0	724	39	6
2	0	0	1	0	520	519	0	0	38	6
3	0	0	1	0	510	514	0	1018	39	6
4	0	0	1	0	523	594	0	124	39	6
5	0	0	1	0	512	564	0	807	39	6
6	0	0	1	0	517	523	0	0	38	6
7	0	0	1	0	513	455	0	534	39	6
8	0	0	1	0	514	461	0	0	39	6
9	0	0	1	0	505	515	0	802	39	6
10	0	0	1	0	517	505	0	173	38	6
11	0	0	1	0	514	515	0	683	39	6
12	0	0	1	0	513	503	0	179	39	6
13	0	0	1	0	508	534	0	983	39	6
14	0	0	1	0	511	508	0	188	38	6
15	0	0	1	0	506	511	0	1017	38	6
0	0	0	1	0	517	518	0	283	39	6
1	0	0	1	0	515	511	0	898	39	6
2	0	0	1	0	514	518	0	225	38	6
3	0	0	1	0	512	524	0	551	39	6
4	0	0	1	0	517	508	0	68	39	6
5	0	0	1	0	504	536	0	755	39	6
6	0	0	1	0	516	509	0	162	38	6
7	0	0	1	0	509	546	0	866	39	6
8	0	0	1	0	518	529	0	220	39	6
9	0	0	1	0	505	545	0	856	39	6
10	0	0	1	0	517	526	0	164	38	6
11	0	0	1	0	517	556	0	847	39	6
12	0	0	1	0	519	554	0	251	39	6
13	0	0	1	0	507	537	0	931	39	6
14	0	0	1	0	515	522	0	202	38	6
15	0	0	1	0	504	507	0	1018	39	6
0	0	0	1	0	513	498	0	474	39	6
1	0	0	1	0	507	507	0	393	39	6
2	0	0	1	0	519	487	0	0	38	6
3	0	0	1	0	511	491	0	937	39	6
4	0	0	1	0	516	494	0	216	39	6
5	0	0	1	0	515	495	0	756	39	6
6	0	0	1	0	518	494	0	140	38	6
7	0	0	1	0	514	487	0	767	39	6
8	0	0	1	0	517	503	0	248	39	6
9	0	0	1	0	515	510	0	751	39	6
10	0	0	1	0	515	496	0	222	38	6
11	0	0	1	0	512	503	0	471	39	6
12	0	0	1	0	514	490	0	191	39	6
13	0	0	1	0	514	518	0	868	39	6
14	0	0	1	0	518	508	0	388	38	6
15	0	0	1	0	515	502	0	728	39	6
0	0	0	1	0	512	502	0	346	39	6
1	0	0	1	0	508	499	0	729	39	6
2	0	0	1	0	523	534	0	301	38	6
3	0	0	1	0	506	511	0	889	38	6
4	0	0	1	0	511	517	0	364	39	6
5	0	0	1	0	512	503	0	766	39	6
6	0	0	1	0	520	517	0	262	38	6
7	0	0	1	0	507	532	0	338	39	6
8	0	0	1	0	508	506	0	185	39	6
9	0	0	1	0	517	519	0	607	39	6
10	0	0	1	0	513	512	0	209	38	6
11	0	0	1	0	512	529	0	809	39	6
12	0	0	1	0	519	500	0	244	39	6
13	0	0	1	0	511	536	0	217	39	6
14	0	0	1	0	515	496	0	0	38	6
15	0	0	1	0	511	508	0	299	39	6
0	0	0	1	0	519	526	0	4	39	6
1	0	0	1	0	511	507	0	636	39	6
2	0	0	1	0	516	520	0	171	38	6
3	0	0	1	0	518	521	0	583	39	6
4	0	0	1	0	515	502	0	202	39	6
5	0	0	1	0	514	509	0	760	39	6
6	0	0	1	0	516	523	0	446	38	6
7	0	0	1	0	511	503	0	336	39	6
8	0	0	1	0	515	521	0	145	39	6
9	0	0	1	0	516	514	0	521	39	6
10	0	0	1	0	512	523	0	183	38	6
11	0	0	1	0	514	521	0	721	39	6
12	0	0	1	0	515	519	0	496	39	6
13	0	0	1	0	512	544	0	365	39	6
14	0	0	1	0	516	523	0	143	38	6
15	0	0	1	0	509	517	0	367	39	6
0	0	0	1	0	516	507	0	284	39	6
1	0	0	1	0	515	518	0	594	39	6
2	0	0	1	0	515	516	0	660	38	6
3	0	0	1	0	512	509	0	489	39	6
4	0	0	1	0	514	522	0	272	39	6
5	0	0	1	0	509	486	0	827	39	6
6	0	0	1	0	510	512	0	324	38	6
7	0	0	1	0	508	502	0	0	39	6
8	0	0	1	0	513	513	0	268	39	6
9	0	0	1	0	510	577	0	397	39	6
10	0	0	1	0	521	583	0	332	38	6
11	0	0	1	0	512	551	0	380	39	6
12	0	0	1	0	511	439	0	159	39	6
13	0	0	1	0	517	448	0	348	39	6
14	0	0	1	0	520	518	0	598	38	6
15	0	0	1	0	511	490	0	347	39	6
0	0	0	1	0	509	515	0	226	39	6
1	0	0	1	0	520	510	0	0	39	6
2	0	0	1	0	517	521	0	0	38	6
3	0	0	1	0	511	524	0	0	39	6
4	0	0	1	0	518	504	0	124	39	6
5	0	0	1	0	514	521	0	0	39	6
6	0	0	1	0	519	511	0	2	38	6
7	0	0	1	0	513	528	0	365	39	6
8	0	0	1	0	512	517	0	468	39	6
9	0	0	1	0	512	514	0	163	39	6
10	0	0	1	0	512	528	0	246	38	6
11	0	0	1	0	516	521	0	307	39	6
12	0	0	1	0	516	536	0	395	39	6
13	0	0	1	0	512	515	0	0	39	6
14	0	0	1	0	514	546	0	0	38	6
15	0	0	1	0	507	535	0	284	39	6
0	0	0	1	0	515	525	0	463	39	6
1	0	0	1	0	514	555	0	361	39	6
2	0	0	1	0	512	510	0	264	38	6
3	0	0	1	0	504	512	0	0	39	6
4	0	0	1	0	512	511	0	199	39	6
5	0	0	1	0	511	509	0	259	39	6
6	0	0	1	0	520	500	0	348	38	6
7	0	0	1	0	512	470	0	308	39	6
8	0	0	1	0	516	510	0	286	39	6
9	0	0	1	0	513	494	0	268	39	6
10	0	0	1	0	513	477	0	109	38	6
11	0	0	1	0	508	498	0	0	39	6
12	0	0	1	0	518	513	0	215	39	6
13	0	0	1	0	511	486	0	264	39	6
14	0	0	1	0	519	484	0	309	38	6
15	0	0	1	0	519	505	0	0	39	6
0	0	0	1	0	509	506	0	257	39	6
1	0	0	1	0	515	496	0	326	39	6
2	0	0	1	0	508	521	0	633	38	6
3	0	0	1	0	515	520	0	228	39	6
4	0	0	1	0	515	519	0	623	39	6
5	0	0	1	0	511	494	0	0	39	6
6	0	0	1	0	516	509	0	257	38	6
7	0	0	1	0	518	514	0	0	39	6
8	0	0	1	0	511	492	0	257	39	6
9	0	0	1	0	515	520	0	0	39	6
10	0	0	1	0	512	519	0	327	38	6
11	0	0	1	0	513	509	0	0	39	6
12	0	0	1	0	513	523	0	300	39	6
13	0	0	1	0	513	534	0	0	39	6
14	0	0	1	0	507	507	0	295	38	6
15	0	0	1	0	511	512	0	0	39	6
0	0	0	1	0	509	497	0	227	39	6
1	0	0	1	0	515	512	0	0	39	6
2	0	0	1	0	512	519	0	419	38	6
3	0	0	1	0	518	517	0	0	39	6
4	0	0	1	0	512	516	0	367	39	6
5	0	0	1	0	513	515	0	0	39	6
6	0	0	1	0	509	501	0	415	38	6
7	0	0	1	0	515	500	0	0	39	6
8	0	0	1	0	512	530	0	479	39	6
9	0	0	1	0	523	514	0	0	39	6
10	0	0	1	0	509	536	0	269	38	6
11	0	0	1	0	519	509	0	0	39	6
12	0	0	1	0	513	516	0	622	39	6
13	0	0	1	0	510	516	0	0	39	6
14	0	0	1	0	512	512	0	0	38	6
15	0	0	1	0	512	494	0	0	39	6
0	0	0	1	0	506	527	0	247	39	6
1	0	0	1	0	514	530	0	1	39	6
2	0	0	1	0	518	532	0	422	38	6
3	0	0	1	0	512	497	0	0	39	6
4	0	0	1	0	504	505	0	332	39	6
5	0	0	1	0	513	518	0	0	39	6
6	0	0	1	0	513	501	0	445	38	6
7	0	0	1	0	512	521	0	0	39	6
8	0	0	1	0	511	514	0	529	39	6
9	0	0	1	0	513	505	0	0	39	6
10	0	0	1	0	505	499	0	59	38	6
11	0	0	1	0	513	546	0	0	39	6
12	0	0	1	0	504	599	0	74	39	6
13	0	0	1	0	519	566	0	0	39	6
14	0	0	1	0	514	420	0	507	38	6
15	0	0	1	0	521	454	0	0	39	6
0	0	0	1	0	513	513	0	476	39	6
1	0	0	1	0	519	506	0	0	39	6
2	0	0	1	0	510	511	0	430	38	6
3	0	0	1	0	508	529	0	0	39	6
4	0	0	1	0	511	513	0	505	39	6
5	0	0	1	0	512	542	0	0	39	6
6	0	0	1	0	511	509	0	454	38	6
7	0	0	1	0	517	536	0	0	38	6
8	0	0	1	0	512	530	0	257	39	6
9	0	0	1	0	513	510	0	0	39	6
10	0	0	1	0	500	514	0	391	38	6
11	0	0	1	0	519	503	0	0	39	6
12	0	0	1	0	510	550	0	174	39	6
13	0	0	1	0	511	532	0	0	39	6
14	0	0	1	0	511	531	0	265	38	6
15	0	0	1	0	511	542	0	0	39	6
0	0	0	1	0	509	534	0	1018	39	6
1	0	0	1	0	515	519	0	0	38	6
2	0	0	1	0	510	550	0	1018	38	6
3	0	0	1	0	514	551	0	0	39	6
4	0	0	1	0	510	546	0	358	39	6
5	0	0	1	0	517	511	0	0	39	6
6	0	0	1	0	507	534	0	1018	38	6
7	0	0	1	0	512	503	0	0	39	6
8	0	0	1	0	507	502	0	100	39	6
9	0	0	1	0	512	455	0	0	39	6
10	0	0	1	0	512	482	0	540	38	6
11	0	0	1	0	511	466	0	0	39	6
12	0	0	1	0	512	501	0	1018	39	6
13	0	0	1	0	512	499	0	0	39	6
14	0	0	1	0	511	496	0	848	38	6
15	0	0	1	0	518	494	0	0	38	6
0	0	0	1	0	509	491	0	264	39	6
1	0	0	1	0	506	469	0	0	39	6
2	0	0	1	0	510	508	0	548	38	6
3	0	0	1	0	520	507	0	0	39	6
4	0	0	1	0	510	521	0	701	39	6
5	0	0	1	0	513	526	0	0	39	6
6	0	0	1	0	505	501	0	209	38	6
7	0	0	1	0	511	518	0	0	38	6
8	0	0	1	0	515	511	0	563	39	6
9	0	0	1	0	512	487	0	0	39	6
10	0	0	1	0	517	496	0	632	38	6
11	0	0	1	0	514	532	0	0	39	6
12	0	0	1	0	509	528	0	406	39	6
13	0	0	1	0	510	498	0	0	39	6
14	0	0	1	0	504	504	0	668	38	6
15	0	0	1	0	519	515	0	0	38	6
0	0	0	1	0	511	513	0	361	39	6
1	0	0	1	0	518	519	0	0	39	6
2	0	0	1	0	514	526	0	581	38	6
3	0	0	1	0	508	524	0	0	38	6
4	0	0	1	0	504	503	0	358	39	6
5	0	0	1	0	513	526	0	0	39	6
6	0	0	1	0	507	499	0	311	38	6
7	0	0	1	0	519	519	0	0	39	6
8	0	0	1	0	511	524	0	501	39	6
9	0	0	1	0	521	490	0	0	39	6
10	0	0	1	0	514	535	0	327	38	6
11	0	0	1	0	511	530	0	0	39	6
12	0	0	1	0	513	481	0	258	39	6
13	0	0	1	0	516	516	0	0	39	6
14	0	0	1	0	508	525	0	844	38	6
15	0	0	1	0	512	530	0	0	39	6
0	0	0	1	0	512	510	0	1018	39	6
1	0	0	1	0	518	487	0	0	39	6
2	0	0	1	0	512	526	0	317	38	6
3	0	0	1	0	517	520	0	0	39	6
4	0	0	1	0	508	560	0	671	39	6
5	0	0	1	0	515	585	0	0	39	6
6	0	0	1	0	505	558	0	465	38	6
7	0	0	1	0	514	439	0	0	39	6
8	0	0	1	0	507	467	0	759	39	6
9	0	0	1	0	518	494	0	0	39	6
10	0	0	1	0	502	508	0	1018	38	6
11	0	0	1	0	519	516	0	0	38	6
12	0	0	1	0	502	541	0	482	39	6
13	0	0	1	0	521	512	0	0	39	6
14	0	0	1	0	507	504	0	696	38	6
15	0	0	1	0	516	528	0	0	39	6
0	0	0	1	0	509	519	0	418	39	6
1	0	0	1	0	520	515	0	0	39	6
2	0	0	1	0	507	524	0	438	38	6
3	0	0	1	0	521	539	0	0	39	6
4	0	0	1	0	507	501	0	548	39	6
5	0	0	1	0	520	532	0	0	39	6
6	0	0	1	0	510	539	0	568	38	6
7	0	0	1	0	515	521	0	0	38	6
8	0	0	1	0	508	514	0	753	39	6
9	0	0	1	0	516	542	0	0	39	6
10	0	0	1	0	510	541	0	436	38	6
11	0	0	1	0	519	539	0	0	39	6
12	0	0	1	0	500	556	0	700	39	6
13	0	0	1	0	518	530	0	0	39	6
14	0	0	1	0	513	512	0	1018	38	6
15	0	0	1	0	518	503	0	0	39	6
0	0	0	1	0	507	492	0	326	39	6
1	0	0	1	0	518	509	0	0	39	6
2	0	0	1	0	506	464	0	1018	38	6
3	0	0	1	0	523	486	0	0	39	6
4	0	0	1	0	509	518	0	609	39	6
5	0	0	1	0	514	466	0	0	39	6
6	0	0	1	0	509	495	0	1018	38	6
7	0	0	1	0	518	508	0	0	38	6
8	0	0	1	0	510	494	0	778	39	6
9	0	0	1	0	518	499	0	0	39	6
10	0	0	1	0	508	502	0	1018	38	6
11	0	0	1	0	522	497	0	0	39	6
12	0	0	1	0	508	485	0	224	39	6
13	0	0	1	0	516	527	0	0	39	6
14	0	0	1	0	504	497	0	1018	38	6
15	0	0	1	0	518	505	0	0	39	6
0	0	0	1	0	514	534	0	1018	39	6
1	0	0	1	0	517	492	0	0	39	6
2	0	0	1	0	509	508	0	905	38	6
3	0	0	1	0	521	500	0	0	38	6
4	0	0	1	0	506	492	0	310	39	6
5	0	0	1	0	523	540	0	0	39	6
6	0	0	1	0	505	506	0	1018	38	6
7	0	0	1	0	523	516	0	0	39	6
8	0	0	1	0	509	496	0	424	39	6
9	0	0	1	0	518	507	0	0	39	6
10	0	0	1	0	501	508	0	842	38	6
11	0	0	1	0	518	529	0	0	39	6
12	0	0	1	0	508	509	0	713	39	6
13	0	0	1	0	519	513	0	0	39	6
14	0	0	1	0	504	516	0	328	38	6
15	0	0	1	0	520	518	0	0	39	6
0	0	0	1	0	505	536	0	1018	39	6
1	0	0	1	0	524	547	0	0	39	6
2	0	0	1	0	503	520	0	231	38	6
3	0	0	1	0	519	509	0	0	39	6
4	0	0	1	0	502	512	0	694	39	6
5	0	0	1	0	516	514	0	0	38	6
6	0	0	1	0	516	538	0	1018	38	6
7	0	0	1	0	517	510	0	0	39	6
8	0	0	1	0	499	521	0	334	39	6
9	0	0	1	0	521	497	0	0	39	6
10	0	0	1	0	508	495	0	1018	38	6
11	0	0	1	0	521	512	0	0	38	6
12	0	0	1	0	504	559	0	689	39	6
13	0	0	1	0	517	609	0	0	38	6
14	0	0	1	0	505	529	0	665	38	6
15	0	0	1	0	518	445	0	0	39	6
0	0	0	1	0	507	467	0	758	39	6
1	0	0	1	0	522	486	0	0	39	6
2	0	0	1	0	511	524	0	1018	38	6
3	0	0	1	0	517	518	0	0	39	6
4	0	0	1	0	507	498	0	1018	39	6
5	0	0	1	0	513	532	0	0	38	6
6	0	0	1	0	505	505	0	1018	38	6
7	0	0	1	0	517	524	0	0	39	6
8	0	0	1	0	504	535	0	371	39	6
9	0	0	1	0	521	513	0	0	39	6
10	0	0	1	0	497	540	0	1018	38	6
11	0	0	1	0	528	530	0	0	39	6
12	0	0	1	0	511	526	0	605	39	6
13	0	0	1	0	526	518	0	0	39	6
14	0	0	1	0	510	523	0	1018	38	6
15	0	0	1	0	516	536	0	0	38	6
0	0	0	1	0	505	527	0	1018	38	6
1	0	0	1	0	518	541	0	0	39	6
2	0	0	1	0	508	568	0	401	38	6
3	0	0	1	0	516	526	0	0	38	6
4	0	0	1	0	507	549	0	1018	38	6
5	0	0	1	0	522	549	0	0	39	6
6	0	0	1	0	504	525	0	798	39	6
7	0	0	1	0	526	496	0	0	38	6
8	0	0	1	0	505	510	0	536	38	6
9	0	0	1	0	521	491	0	0	39	6
10	0	0	1	0	508	488	0	1018	38	6
11	0	0	1	0	527	490	0	0	38	6
12	0	0	1	0	506	491	0	433	39	6
13	0	0	1	0	523	496	0	0	39	6
14	0	0	1	0	504	482	0	1018	38	6
15	0	0	1	0	522	491	0	0	38	6
0	0	0	1	0	501	512	0	568	39	6
1	0	0	1	0	519	512	0	0	39	6
2	0	0	1	0	499	507	0	1018	38	6
3	0	0	1	0	518	500	0	0	38	6
4	0	0	1	0	506	534	0	1018	39	6
5	0	0	1	0	511	508	0	0	39	6
6	0	0	1	0	506	474	0	1018	38	6
7	0	0	1	0	528	505	0	0	38	6
8	0	0	1	0	503	500	0	1018	39	6
9	0	0	1	0	514	516	0	0	39	6
10	0	0	1	0	509	526	0	1018	38	6
11	0	0	1	0	522	520	0	0	39	6
12	0	0	1	0	498	531	0	1018	39	6
13	0	0	1	0	519	515	0	0	39	6
14	0	0	1	0	510	517	0	1018	38	6
15	0	0	1	0	527	500	0	0	39	6
0	0	0	1	0	504	513	0	827	39	6
1	0	0	1	0	521	495	0	0	39	6
2	0	0	1	0	508	527	0	1018	38	6
3	0	0	1	0	523	524	0	0	39	6
4	0	0	1	0	500	536	0	1018	39	6
5	0	0	1	0	525	537	0	0	39	6
6	0	0	1	0	507	489	0	1018	38	6
7	0	0	1	0	521	509	0	0	39	6
8	0	0	1	0	506	529	0	1018	39	6
9	0	0	1	0	524	522	0	0	39	6
10	0	0	1	0	507	527	0	1018	38	6
11	0	0	1	0	523	516	0	0	39	6
12	0	0	1	0	505	494	0	621	39	6
13	0	0	1	0	523	498	0	0	39	6
14	0	0	1	0	511	515	0	1018	38	6
15	0	0	1	0	517	499	0	0	39	6
0	0	0	1	0	502	525	0	1018	39	6
1	0	0	1	0	526	507	0	0	38	6
2	0	0	1	0	505	507	0	787	38	6
3	0	0	1	0	520	515	0	0	39	6
4	0	0	1	0	507	606	0	1018	39	6
5	0	0	1	0	517	604	0	0	39	6
6	0	0	1	0	501	479	0	1018	38	6
7	0	0	1	0	523	446	0	0	39	6
8	0	0	1	0	507	481	0	1018	39	6
9	0	0	1	0	531	511	0	0	39	6
10	0	0	1	0	512	505	0	850	38	6
11	0	0	1	0	516	531	0	0	39	6
12	0	0	1	0	508	520	0	1018	39	6
13	0	0	1	0	515	519	0	0	38	6
14	0	0	1	0	506	511	0	1018	38	6
15	0	0	1	0	524	532	0	0	39	6
0	0	0	1	0	509	513	0	1018	39	6
1	0	0	1	0	529	549	0	0	39	6
2	0	0	1	0	503	511	0	1018	38	6
3	0	0	1	0	526	525	0	0	39	6
4	0	0	1	0	503	534	0	1018	39	6
5	0	0	1	0	515	512	0	0	39	6
6	0	0	1	0	502	509	0	1018	38	6
7	0	0	1	0	527	530	0	0	39	6
8	0	0	1	0	499	536	0	1018	39	6
9	0	0	1	0	521	569	0	0	39	6
10	0	0	1	0	503	526	0	1018	38	6
11	0	0	1	0	525	531	0	0	39	6
12	0	0	1	0	508	542	0	1018	39	6
13	0	0	1	0	521	539	0	0	39	6
14	0	0	1	0	505	514	0	1018	38	6
15	0	0	1	0	522	526	0	0	39	6
0	0	0	1	0	511	495	0	1018	39	6
1	0	0	1	0	518	484	0	0	39	6
2	0	0	1	0	498	483	0	1018	38	6
3	0	0	1	0	524	501	0	0	39	6
4	0	0	1	0	504	490	0	1018	39	6
5	0	0	1	0	527	478	0	0	38	6
6	0	0	1	0	499	512	0	1018	38	6
7	0	0	1	0	518	496	0	0	39	6
8	0	0	1	0	505	482	0	1018	39	6
9	0	0	1	0	521	500	0	0	39	6
10	0	0	1	0	504	488	0	1018	38	6
11	0	0	1	0	521	510	0	0	39	6
12	0	0	1	0	499	512	0	1018	39	6
13	0	0	1	0	525	515	0	0	39	6
14	0	0	1	0	505	508	0	879	38	6
15	0	0	1	0	524	494	0	0	39	6
0	0	0	1	0	500	498	0	1018	39	6
1	0	0	1	0	523	514	0	0	39	6
2	0	0	1	0	498	527	0	1018	38	6
3	0	0	1	0	524	515	0	0	39	6
4	0	0	1	0	509	536	0	1011	39	6
5	0	0	1	0	523	499	0	0	39	6
6	0	0	1	0	502	504	0	1018	38	6
7	0	0	1	0	524	505	0	0	39	6
8	0	0	1	0	504	520	0	1018	39	6
9	0	0	1	0	518	517	0	0	39	6
10	0	0	1	0	497	514	0	1018	38	6
11	0	0	1	0	522	528	0	0	39	6
12	0	0	1	0	509	528	0	1018	39	6
13	0	0	1	0	526	511	0	0	39	6
14	0	0	1	0	505	495	0	1018	38	6
15	0	0	1	0	520	520	0	0	39	6
0	0	0	1	0	503	513	0	1018	39	6
1	0	0	1	0	524	518	0	0	39	6
2	0	0	1	0	506	512	0	1018	38	6
3	0	0	1	0	522	508	0	0	39	6
4	0	0	1	0	510	520	0	711	39	6
5	0	0	1	0	524	537	0	0	39	6
6	0	0	1	0	505	573	0	1018	38	6
7	0	0	1	0	524	589	0	0	38	6
8	0	0	1	0	509	473	0	1018	39	6
9	0	0	1	0	527	426	0	0	38	6
10	0	0	1	0	505	505	0	1018	38	6
11	0	0	1	0	523	502	0	0	39	6
12	0	0	1	0	503	506	0	904	39	6
13	0	0	1	0	517	542	0	0	39	6
14	0	0	1	0	509	519	0	1018	38	6
15	0	0	1	0	527	531	0	0	39	6
0	0	0	1	0	501	496	0	723	39	6
1	0	0	1	0	527	524	0	0	39	6
2	0	0	1	0	500	513	0	715	38	6
3	0	0	1	0	528	522	0	0	38	6
4	0	0	1	0	499	526	0	1018	39	6
5	0	0	1	0	523	529	0	0	39	6
6	0	0	1	0	504	552	0	1018	38	6
7	0	0	1	0	521	529	0	0	39	6
8	0	0	1	0	506	542	0	1018	39	6
9	0	0	1	0	516	512	0	0	39	6
10	0	0	1	0	502	534	0	1018	38	6
11	0	0	1	0	530	585	0	0	39	6
12	0	0	1	0	498	540	0	1018	39	6
13	0	0	1	0	527	548	0	0	39	6
14	0	0	1	0	506	508	0	1018	38	6
15	0	0	1	0	525	531	0	0	39	6
0	0	0	1	0	502	507	0	1018	39	6
1	0	0	1	0	524	497	0	0	39	6
2	0	0	1	0	506	531	0	1018	38	6
3	0	0	1	0	524	465	0	0	39	6
4	0	0	1	0	502	472	0	1018	39	6
5	0	0	1	0	527	510	0	0	39	6
6	0	0	1	0	508	513	0	1018	38	6
7	0	0	1	0	527	488	0	0	39	6
8	0	0	1	0	507	465	0	1018	39	6
9	0	0	1	0	522	514	0	0	38	6
10	0	0	1	0	505	489	0	1018	38	6
11	0	0	1	0	520	491	0	0	39	6
12	0	0	1	0	510	504	0	799	39	6
13	0	0	1	0	527	523	0	0	38	6
14	0	0	1	0	505	509	0	1018	38	6
15	0	0	1	0	526	493	0	0	38	6
0	0	0	1	0	498	518	0	498	39	6
1	0	0	1	0	525	543	0	0	39	6
2	0	0	1	0	505	487	0	0	38	6
3	0	0	1	0	521	527	0	0	39	6
4	0	0	1	0	502	513	0	235	39	6
5	0	0	1	0	520	502	0	0	39	6
6	0	0	1	0	499	513	0	241	38	6
7	0	0	1	0	524	515	0	0	39	6
8	0	0	1	0	499	496	0	1018	39	6
9	0	0	1	0	524	516	0	0	39	6
10	0	0	1	0	514	542	0	0	38	6
11	0	0	1	0	516	515	0	0	39	6
12	0	0	1	0	504	470	0	0	39	6
13	0	0	1	0	524	521	0	0	39	6
14	0	0	1	0	503	536	0	97	38	6
15	0	0	1	0	527	540	0	0	39	6
0	0	0	1	0	503	547	0	259	39	6
1	0	0	1	0	527	545	0	51	39	6
2	0	0	1	0	499	464	0	297	38	6
3	0	0	1	0	527	508	0	156	39	6
4	0	0	1	0	504	524	0	742	39	6
5	0	0	1	0	520	504	0	234	39	6
6	0	0	1	0	508	515	0	1018	38	6
7	0	0	1	0	525	509	0	258	39	6
8	0	0	1	0	504	535	0	1018	39	6
9	0	0	1	0	523	551	0	239	39	6
10	0	0	1	0	503	532	0	1018	38	6
11	0	0	1	0	527	611	0	222	39	6
12	0	0	1	0	504	505	0	1018	38	6
13	0	0	1	0	523	405	0	189	39	6
14	0	0	1	0	507	498	0	1018	38	6
15	0	0	1	0	524	477	0	145	39	6
0	0	0	1	0	500	524	0	1018	39	6
1	0	0	1	0	523	513	0	139	39	6
2	0	0	1	0	499	491	0	1018	38	6
3	0	0	1	0	519	532	0	144	39	6
4	0	0	1	0	508	578	0	1018	39	6
5	0	0	1	0	518	522	0	33	39	6
6	0	0	1	0	504	505	0	1018	38	6
7	0	0	1	0	523	525	0	0	38	6
8	0	0	1	0	506	500	0	1018	39	6
9	0	0	1	0	527	560	0	0	39	6
10	0	0	1	0	499	489	0	1018	38	6
11	0	0	1	0	520	548	0	0	39	6
12	0	0	1	0	495	524	0	1018	39	6
13	0	0	1	0	528	508	0	0	39	6
14	0	0	1	0	504	582	0	1018	38	6
15	0	0	1	0	525	517	0	0	39	6
0	0	0	1	0	500	515	0	405	39	6
1	0	0	1	0	526	559	0	0	39	5
2	0	0	1	0	504	509	0	593	38	5
3	0	0	1	0	528	538	0	0	39	5
4	0	0	1	0	503	527	0	792	39	5
5	0	0	1	0	524	503	0	0	39	5
6	0	0	1	0	510	502	0	1018	38	5
7	0	0	1	0	519	515	0	0	39	5
8	0	0	1	0	500	489	0	1018	39	5
9	0	0	1	0	521	484	0	0	39	5
10	0	0	1	0	512	483	0	1018	38	5
11	0	0	1	0	522	508	0	0	39	5
12	0	0	1	0	504	499	0	1018	39	5
13	0	0	1	0	528	505	0	0	39	5
14	0	0	1	0	501	511	0	1018	38	5
15	0	0	1	0	520	468	0	0	39	5
0	0	0	1	0	496	483	0	1018	39	5
1	0	0	1	0	520	522	0	0	39	5
2	0	0	1	0	495	447	0	1018	38	5
3	0	0	1	0	531	529	0	0	39	5
4	0	0	1	0	502	496	0	788	39	5
5	0	0	1	0	525	488	0	0	38	5
6	0	0	1	0	505	520	0	93	38	5
7	0	0	1	0	529	488	0	0	39	5
8	0	0	1	0	504	504	0	1018	39	5
9	0	0	1	0	520	521	0	0	39	5
10	0	0	1	0	501	506	0	1018	38	5
11	0	0	1	0	528	503	0	0	39	5
12	0	0	1	0	509	510	0	426	39	5
13	0	0	1	0	523	536	0	0	38	5
14	0	0	1	0	509	501	0	1018	38	5
15	0	0	1	0	522	511	0	0	39	5
0	0	0	1	0	503	521	0	1018	39	5
1	0	0	1	0	524	501	0	0	39	5
2	0	0	1	0	499	510	0	1018	38	5
3	0	0	1	0	521	540	0	0	39	5
4	0	0	1	0	508	540	0	1018	39	5
5	0	0	1	0	520	565	0	0	39	5
6	0	0	1	0	504	474	0	1018	38	5
7	0	0	1	0	526	549	0	0	39	5
8	0	0	1	0	506	503	0	1018	39	5
9	0	0	1	0	524	523	0	0	39	5
10	0	0	1	0	509	539	0	1018	38	5
11	0	0	1	0	516	494	0	0	39	5
12	0	0	1	0	502	534	0	1018	39	5
13	0	0	1	0	531	519	0	0	39	5
14	0	0	1	0	505	501	0	1018	38	5
15	0	0	1	0	520	531	0	0	39	5
0	0	0	1	0	504	597	0	590	39	5
1	0	0	1	0	519	618	0	0	39	5
2	0	0	1	0	504	446	0	457	38	5
3	0	0	1	0	526	511	0	0	39	5
4	0	0	1	0	505	430	0	748	39	5
5	0	0	1	0	528	504	0	0	39	5
6	0	0	1	0	505	565	0	673	38	5
7	0	0	1	0	524	557	0	0	39	5
8	0	0	1	0	504	538	0	1018	39	5
9	0	0	1	0	521	553	0	0	39	5
10	0	0	1	0	503	469	0	1018	38	5
11	0	0	1	0	524	521	0	0	39	5
12	0	0	1	0	504	569	0	1018	39	5
13	0	0	1	0	519	482	0	0	38	5
14	0	0	1	0	501	535	0	1018	38	5
15	0	0	1	0	518	526	0	0	39	5
0	0	0	1	0	503	535	0	1018	39	5
1	0	0	1	0	518	587	0	0	39	5
2	0	0	1	0	504	499	0	1018	38	5
3	0	0	1	0	517	573	0	0	39	5
4	0	0	1	0	499	480	0	1018	39	5
5	0	0	1	0	516	540	0	0	39	5
6	0	0	1	0	508	579	0	1018	38	5
7	0	0	1	0	521	527	0	0	39	5
8	0	0	1	0	503	560	0	1018	39	5
9	0	0	1	0	517	468	0	0	39	5
10	0	0	1	0	502	519	0	1018	38	5
11	0	0	1	0	524	541	0	0	39	5
12	0	0	1	0	511	471	0	1018	39	5
13	0	0	1	0	519	448	0	0	39	5
14	0	0	1	0	513	507	0	1018	38	5
15	0	0	1	0	523	506	0	0	39	5
0	0	0	1	0	502	486	0	1018	39	5
1	0	0	1	0	522	482	0	0	39	5
2	0	0	1	0	507	499	0	1018	38	5
3	0	0	1	0	523	491	0	0	38	5
4	0	0	1	0	503	462	0	1018	39	5
5	0	0	1	0	526	520	0	0	39	5
6	0	0	1	0	507	501	0	1018	38	5
7	0	0	1	0	519	516	0	0	39	5
8	0	0	1	0	508	478	0	1018	39	5
9	0	0	1	0	518	491	0	0	39	5
10	0	0	1	0	508	515	0	1018	38	5
11	0	0	1	0	519	553	0	0	39	5
12	0	0	1	0	504	504	0	1018	39	5
13	0	0	1	0	518	498	0	0	39	5
14	0	0	1	0	505	543	0	1018	38	5
15	0	0	1	0	521	481	0	0	39	5
0	0	0	1	0	500	568	0	1018	39	5
1	0	0	1	0	522	545	0	0	39	5
2	0	0	1	0	508	501	0	1018	38	5
3	0	0	1	0	516	527	0	0	39	5
4	0	0	1	0	508	549	0	1018	39	5
5	0	0	1	0	518	536	0	0	39	5
6	0	0	1	0	499	559	0	1018	38	5
7	0	0	1	0	521	542	0	0	39	5
8	0	0	1	0	509	541	0	1018	39	5
9	0	0	1	0	516	524	0	0	39	5
10	0	0	1	0	504	534	0	1018	38	5
11	0	0	1	0	520	544	0	0	39	5
12	0	0	1	0	509	531	0	1018	39	5
13	0	0	1	0	527	557	0	0	39	5
14	0	0	1	0	503	539	0	1018	38	5
15	0	0	1	0	526	522	0	0	39	5
0	0	0	1	0	509	539	0	1018	39	5
1	0	0	1	0	523	532	0	0	39	5
2	0	0	1	0	510	520	0	1018	38	5
3	0	0	1	0	519	532	0	0	39	5
4	0	0	1	0	507	491	0	1018	39	5
5	0	0	1	0	522	512	0	0	39	5
6	0	0	1	0	504	492	0	1018	38	5
7	0	0	1	0	520	563	0	0	39	5
8	0	0	1	0	515	630	0	1018	38	5
9	0	0	1	0	518	570	0	0	39	5
10	0	0	1	0	509	445	0	1018	38	5
11	0	0	1	0	514	387	0	0	39	5
12	0	0	1	0	509	373	0	1018	39	5
13	0	0	1	0	526	469	0	0	39	5
14	0	0	1	0	509	424	0	1018	38	5
15	0	0	1	0	521	484	0	0	39	5
0	0	0	1	0	507	425	0	1018	39	5
1	0	0	1	0	515	399	0	0	39	5
2	0	0	1	0	502	473	0	1018	38	5
3	0	0	1	0	524	535	0	0	39	5
4	0	0	1	0	511	499	0	1018	39	5
5	0	0	1	0	519	527	0	0	39	5
6	0	0	1	0	511	509	0	1018	38	5
7	0	0	1	0	518	560	0	0	38	5
8	0	0	1	0	504	628	0	1018	39	5
9	0	0	1	0	518	568	0	0	39	5
10	0	0	1	0	504	561	0	1018	38	5
11	0	0	1	0	520	557	0	0	39	5
12	0	0	1	0	510	571	0	1018	39	5
13	0	0	1	0	523	562	0	0	39	5
14	0	0	1	0	503	603	0	1018	38	5
15	0	0	1	0	518	550	0	0	39	5
0	0	0	1	0	518	549	0	1018	39	5
1	0	0	1	0	520	529	0	0	38	5
2	0	0	1	0	510	528	0	1018	38	5
3	0	0	1	0	523	515	0	0	39	5
4	0	0	1	0	510	462	0	1018	39	5
5	0	0	1	0	527	474	0	0	39	5
6	0	0	1	0	510	489	0	1018	38	5
7	0	0	1	0	520	485	0	0	39	5
8	0	0	1	0	508	495	0	1018	39	5
9	0	0	1	0	521	497	0	0	39	5
10	0	0	1	0	504	474	0	1018	38	5
11	0	0	1	0	525	523	0	0	39	5
12	0	0	1	0	498	524	0	1018	39	5
13	0	0	1	0	521	489	0	0	38	5
14	0	0	1	0	500	491	0	1018	38	5
15	0	0	1	0	520	504	0	0	38	5
0	0	0	1	0	505	473	0	1018	39	5
1	0	0	1	0	520	512	0	0	39	5
2	0	0	1	0	500	522	0	1018	38	5
3	0	0	1	0	519	496	0	0	39	5
4	0	0	1	0	505	494	0	1018	39	5
5	0	0	1	0	518	518	0	0	39	5
6	0	0	1	0	508	530	0	1018	38	5
7	0	0	1	0	515	507	0	0	39	5
8	0	0	1	0	507	525	0	1018	39	5
9	0	0	1	0	520	523	0	0	38	5
10	0	0	1	0	503	511	0	1018	38	5
11	0	0	1	0	517	516	0	0	39	5
12	0	0	1	0	504	504	0	1018	39	5
13	0	0	1	0	527	502	0	0	39	5
14	0	0	1	0	511	493	0	1018	38	5
15	0	0	1	0	521	529	0	0	39	5
0	0	0	1	0	505	499	0	1018	39	5
1	0	0	1	0	517	504	0	0	39	5
2	0	0	1	0	508	476	0	1018	38	5
3	0	0	1	0	530	519	0	0	39	5
4	0	0	1	0	503	508	0	1018	39	5
5	0	0	1	0	521	487	0	0	39	5
6	0	0	1	0	507	540	0	1018	38	5
7	0	0	1	0	518	464	0	0	39	5
8	0	0	1	0	505	504	0	1018	39	5
9	0	0	1	0	517	488	0	0	39	5
10	0	0	1	0	502	408	0	1018	38	5
11	0	0	1	0	522	435	0	0	39	5
12	0	0	1	0	504	466	0	1018	39	5
13	0	0	1	0	519	489	0	0	39	5
14	0	0	1	0	501	465	0	1018	38	5
15	0	0	1	0	520	457	0	0	39	5
0	0	0	1	0	511	439	0	1018	39	5
1	0	0	1	0	525	467	0	0	39	5
2	0	0	1	0	509	478	0	1018	38	5
3	0	0	1	0	517	557	0	0	38	5
4	0	0	1	0	505	590	0	1018	39	5
5	0	0	1	0	518	474	0	0	39	5
6	0	0	1	0	503	366	0	1018	38	5
7	0	0	1	0	514	471	0	0	39	5
8	0	0	1	0	507	502	0	1018	39	5
9	0	0	1	0	512	532	0	0	39	5
10	0	0	1	0	504	523	0	1018	38	5
11	0	0	1	0	526	525	0	0	39	5
12	0	0	1	0	507	515	0	1018	39	5
13	0	0	1	0	529	527	0	0	39	5
14	0	0	1	0	508	558	0	1018	38	5
15	0	0	1	0	518	531	0	0	38	5
0	0	0	1	0	505	536	0	1018	39	5
1	0	0	1	0	525	525	0	0	39	5
2	0	0	1	0	507	527	0	1018	38	5
3	0	0	1	0	519	558	0	0	38	5
4	0	0	1	0	503	536	0	1018	39	5
5	0	0	1	0	522	578	0	0	39	5
6	0	0	1	0	511	580	0	1018	38	5
7	0	0	1	0	525	516	0	0	39	5
8	0	0	1	0	506	557	0	1018	39	5
9	0	0	1	0	522	582	0	0	39	5
10	0	0	1	0	509	570	0	1018	38	5
11	0	0	1	0	521	595	0	0	38	5
12	0	0	1	0	509	570	0	1018	39	5
13	0	0	1	0	515	574	0	0	39	5
14	0	0	1	0	500	535	0	1018	38	5
15	0	0	1	0	516	517	0	0	39	5
0	0	0	1	0	509	551	0	1018	39	5
1	0	0	1	0	518	545	0	0	39	5
2	0	0	1	0	515	504	0	1018	38	5
3	0	0	1	0	522	521	0	0	39	5
4	0	0	1	0	502	529	0	1018	39	5
5	0	0	1	0	516	540	0	0	39	5
6	0	0	1	0	505	529	0	1018	38	5
7	0	0	1	0	524	531	0	0	39	5
8	0	0	1	0	505	515	0	1018	39	5
9	0	0	1	0	522	518	0	0	39	5
10	0	0	1	0	501	519	0	1018	38	5
11	0	0	1	0	517	500	0	0	38	5
12	0	0	1	0	503	501	0	1018	39	5
13	0	0	1	0	521	567	0	0	39	5
14	0	0	1	0	509	522	0	1018	38	5
15	0	0	1	0	524	541	0	0	38	5
0	0	0	1	0	509	504	0	1018	39	5
1	0	0	1	0	526	507	0	0	39	5
2	0	0	1	0	503	478	0	1018	38	5
3	0	0	1	0	523	497	0	0	39	5
4	0	0	1	0	510	515	0	1018	39	5
5	0	0	1	0	523	535	0	0	39	5
6	0	0	1	0	504	480	0	1018	38	5
7	0	0	1	0	513	512	0	0	39	5
8	0	0	1	0	510	479	0	1018	39	5
9	0	0	1	0	520	486	0	0	39	5
10	0	0	1	0	505	489	0	1018	38	5
11	0	0	1	0	527	534	0	0	38	5
12	0	0	1	0	504	494	0	1018	39	5
13	0	0	1	0	524	502	0	0	39	5
14	0	0	1	0	509	492	0	1018	38	5
15	0	0	1	0	521	519	0	0	39	5
0	0	0	1	0	505	482	0	1018	39	5
1	0	0	1	0	516	493	0	0	39	5
2	0	0	1	0	513	517	0	1018	38	5
3	0	0	1	0	522	530	0	0	39	5
4	0	0	1	0	506	528	0	1018	39	5
5	0	0	1	0	519	534	0	0	39	5
6	0	0	1	0	510	502	0	1018	38	5
7	0	0	1	0	521	503	0	0	39	5
8	0	0	1	0	502	502	0	1018	38	5
9	0	0	1	0	524	530	0	470	40	5
10	0	0	1	0	510	531	0	1018	38	5
11	0	0	1	0	517	494	0	0	38	5
12	0	0	1	0	506	471	0	1018	38	5
13	0	0	1	0	524	518	0	0	38	5
14	0	0	1	0	506	489	0	803	39	5
15	0	0	1	0	516	534	0	0	37	5
0	0	0	1	0	505	575	0	1018	39	5
1	0	0	1	0	519	590	0	0	39	5
2	0	0	1	0	503	443	0	1018	38	5
3	0	0	1	0	519	431	0	0	39	5
4	0	0	1	0	511	468	0	1018	39	5
5	0	0	1	0	519	499	0	0	38	5
6	0	0	1	0	501	521	0	1018	39	5
7	0	0	1	0	524	525	0	0	38	5
8	0	0	1	0	512	505	0	1018	38	5
9	0	0	1	0	513	543	0	0	39	5
10	0	0	1	0	497	518	0	398	38	5
11	0	0	1	0	512	536	0	0	39	5
12	0	0	1	0	511	523	0	1018	39	5
13	0	0	1	0	512	507	0	0	39	5
14	0	0	1	0	503	520	0	1018	38	5
15	0	0	1	0	519	529	0	0	39	5
0	0	0	1	0	507	540	0	1018	39	5
1	0	0	1	0	524	535	0	0	39	5
2	0	0	1	0	501	530	0	1018	38	5
3	0	0	1	0	524	549	0	0	39	5
4	0	0	1	0	508	544	0	1018	39	5
5	0	0	1	0	526	547	0	0	39	5
6	0	0	1	0	508	556	0	1018	38	5
7	0	0	1	0	516	543	0	0	38	5
8	0	0	1	0	510	533	0	1018	39	5
9	0	0	1	0	518	534	0	0	39	5
10	0	0	1	0	504	533	0	1018	38	5
11	0	0	1	0	523	520	0	0	38	5
12	0	0	1	0	503	461	0	1018	39	5
13	0	0	1	0	516	524	0	0	38	5
14	0	0	1	0	511	471	0	1018	38	5
15	0	0	1	0	526	502	0	0	39	5
0	0	0	1	0	508	498	0	1018	39	5
1	0	0	1	0	521	473	0	0	39	5
2	0	0	1	0	506	537	0	1018	38	5
3	0	0	1	0	515	538	0	0	38	5
4	0	0	1	0	512	489	0	1018	39	5
5	0	0	1	0	509	517	0	0	39	5
6	0	0	1	0	515	497	0	1018	38	5
7	0	0	1	0	516	511	0	0	39	5
8	0	0	1	0	505	521	0	1018	39	5
9	0	0	1	0	519	512	0	0	39	6
10	0	0	1	0	509	495	0	1018	38	6
11	0	0	1	0	517	521	0	0	38	6
12	0	0	1	0	511	499	0	1018	39	6
13	0	0	1	0	521	531	0	0	39	6
14	0	0	1	0	503	487	0	1018	38	6
15	0	0	1	0	522	515	0	0	38	5
0	0	0	1	0	505	526	0	1018	39	6
1	0	0	1	0	518	509	0	0	39	6
2	0	0	1	0	510	514	0	1018	38	6
3	0	0	1	0	519	513	0	0	39	6
4	0	0	1	0	499	525	0	1018	39	6
5	0	0	1	0	521	525	0	0	39	6
6	0	0	1	0	504	499	0	1018	38	6
7	0	0	1	0	519	563	0	0	39	6
8	0	0	1	0	507	486	0	1018	39	6
9	0	0	1	0	520	509	0	0	39	6
10	0	0	1	0	509	499	0	1018	38	6
11	0	0	1	0	517	519	0	0	38	6
12	0	0	1	0	508	512	0	1018	39	6
13	0	0	1	0	519	503	0	0	39	6
14	0	0	1	0	510	505	0	47	38	6
15	0	0	1	0	514	540	0	0	39	6
0	0	0	1	0	507	534	0	1018	39	6
1	0	0	1	0	521	509	0	0	39	6
2	0	0	1	0	502	514	0	1018	38	6
3	0	0	1	0	518	546	0	0	39	6
4	0	0	1	0	509	488	0	1018	39	6
5	0	0	1	0	523	491	0	0	38	6
6	0	0	1	0	503	540	0	1018	38	6
7	0	0	1	0	520	525	0	0	38	6
8	0	0	1	0	507	489	0	1018	39	6
9	0	0	1	0	513	528	0	0	38	6
10	0	0	1	0	506	501	0	320	38	6
11	0	0	1	0	524	512	0	0	39	6
12	0	0	1	0	503	499	0	854	38	6
13	0	0	1	0	515	531	0	0	39	6
14	0	0	1	0	496	574	0	1018	38	6
15	0	0	1	0	524	615	0	0	39	6
0	0	0	1	0	507	443	0	1018	38	6
1	0	0	1	0	514	451	0	86	39	6
2	0	0	1	0	512	472	0	1018	38	6
3	0	0	1	0	516	516	0	152	39	6
4	0	0	1	0	505	481	0	1018	39	6
5	0	0	1	0	516	543	0	168	39	6
6	0	0	1	0	504	489	0	1018	38	6
7	0	0	1	0	516	518	0	36	39	6
8	0	0	1	0	503	518	0	1018	39	6
9	0	0	1	0	512	520	0	25	38	6
10	0	0	1	0	505	507	0	569	38	6
11	0	0	1	0	519	527	0	71	39	6
12	0	0	1	0	501	517	0	861	39	6
13	0	0	1	0	517	519	0	188	39	6
14	0	0	1	0	510	551	0	1018	38	6
15	0	0	1	0	519	526	0	377	39	6
0	0	0	1	0	510	515	0	1018	39	6
1	0	0	1	0	514	558	0	291	39	6
2	0	0	1	0	503	535	0	1018	38	6
3	0	0	1	0	519	557	0	300	39	6
4	0	0	1	0	506	521	0	728	39	6
5	0	0	1	0	514	559	0	204	39	6
6	0	0	1	0	505	553	0	1018	38	6
7	0	0	1	0	518	515	0	303	39	6
8	0	0	1	0	504	511	0	1018	39	6
9	0	0	1	0	512	496	0	338	39	6
10	0	0	1	0	505	491	0	1018	38	6
11	0	0	1	0	519	507	0	361	39	6
12	0	0	1	0	510	480	0	669	39	6
13	0	0	1	0	519	483	0	326	39	6
14	0	0	1	0	510	481	0	1018	38	6
15	0	0	1	0	519	484	0	404	39	6
0	0	0	1	0	513	490	0	640	39	6
1	0	0	1	0	518	509	0	396	39	6
2	0	0	1	0	507	450	0	661	38	6
3	0	0	1	0	515	498	0	435	39	6
4	0	0	1	0	509	510	0	755	39	6
5	0	0	1	0	515	498	0	482	39	6
6	0	0	1	0	513	483	0	723	38	6
7	0	0	1	0	523	507	0	511	39	6
8	0	0	1	0	508	503	0	663	39	6
9	0	0	1	0	520	526	0	530	39	6
10	0	0	1	0	504	504	0	904	38	6
11	0	0	1	0	521	478	0	560	39	6
12	0	0	1	0	504	531	0	860	38	6
13	0	0	1	0	515	513	0	574	39	6
14	0	0	1	0	508	484	0	799	39	6
15	0	0	1	0	516	501	0	567	38	6
0	0	0	1	0	508	523	0	692	38	6
1	0	0	1	0	515	503	0	569	39	6
2	0	0	1	0	508	492	0	691	39	6
3	0	0	1	0	512	524	0	574	39	6
4	0	0	1	0	499	529	0	760	39	6
5	0	0	1	0	518	537	0	594	38	6
6	0	0	1	0	511	555	0	720	40	6
7	0	0	1	0	518	537	0	579	35	5
8	0	0	1	0	513	504	0	1018	40	5
9	0	0	1	0	520	527	0	672	39	5
10	0	0	1	0	504	508	0	811	39	5
11	0	0	1	0	516	551	0	511	39	5
12	0	0	1	0	506	475	0	977	39	5
13	0	0	1	0	518	513	0	540	39	5
14	0	0	1	0	510	482	0	729	38	5
15	0	0	1	0	521	520	0	503	39	5
0	0	0	1	0	507	507	0	933	39	5
1	0	0	1	0	519	534	0	519	39	5
2	0	0	1	0	516	489	0	948	38	5
3	0	0	1	0	519	542	0	504	39	5
4	0	0	1	0	497	616	0	991	39	5
5	0	0	1	0	519	595	0	494	39	5
6	0	0	1	0	508	454	0	912	38	5
7	0	0	1	0	517	393	0	478	39	5
8	0	0	1	0	506	486	0	730	39	5
9	0	0	1	0	513	521	0	461	39	5
10	0	0	1	0	512	500	0	861	38	5
11	0	0	1	0	516	519	0	466	39	5
12	0	0	1	0	509	490	0	728	39	5
13	0	0	1	0	516	524	0	448	39	5
14	0	0	1	0	510	505	0	820	38	5
15	0	0	1	0	513	530	0	456	39	5
0	0	0	1	0	508	531	0	843	39	5
1	0	0	1	0	515	512	0	456	38	5
2	0	0	1	0	508	559	0	703	38	5
3	0	0	1	0	511	537	0	438	39	5
4	0	0	1	0	504	522	0	642	39	5
5	0	0	1	0	516	554	0	430	38	5
6	0	0	1	0	516	518	0	919	38	5
7	0	0	1	0	515	576	0	462	38	5
8	0	0	1	0	511	539	0	1018	39	5
9	0	0	1	0	518	575	0	462	39	5
10	0	0	1	0	503	537	0	622	39	5
11	0	0	1	0	518	561	0	396	39	5
12	0	0	1	0	502	532	0	614	38	5
13	0	0	1	0	518	528	0	407	38	5
14	0	0	1	0	510	519	0	947	38	5
15	0	0	1	0	516	530	0	445	39	5
0	0	0	1	0	511	479	0	945	39	5
1	0	0	1	0	515	488	0	416	38	5
2	0	0	1	0	508	456	0	926	39	5
3	0	0	1	0	517	483	0	412	38	5
4	0	0	1	0	506	490	0	1018	39	5
5	0	0	1	0	515	472	0	595	39	5
6	0	0	1	0	505	481	0	1018	38	5
7	0	0	1	0	511	486	0	551	39	5
8	0	0	1	0	511	501	0	1018	38	5
9	0	0	1	0	517	495	0	227	38	5
10	0	0	1	0	518	469	0	1018	39	5
11	0	0	1	0	519	519	0	415	39	5
12	0	0	1	0	504	520	0	943	38	5
13	0	0	1	0	512	483	0	111	39	5
14	0	0	1	0	506	576	0	1018	38	5
15	0	0	1	0	523	481	0	363	39	5
0	0	0	1	0	510	498	0	1018	39	5
1	0	0	1	0	516	529	0	236	38	5
2	0	0	1	0	510	471	0	1018	39	5
3	0	0	1	0	519	511	0	410	39	5
4	0	0	1	0	507	528	0	1018	38	5
5	0	0	1	0	515	513	0	176	38	5
6	0	0	1	0	511	491	0	1018	38	5
7	0	0	1	0	514	538	0	314	39	5
8	0	0	1	0	504	518	0	1018	38	5
9	0	0	1	0	520	553	0	0	38	5
10	0	0	1	0	504	531	0	1018	39	5
11	0	0	1	0	515	496	0	634	38	5
12	0	0	1	0	511	499	0	1018	38	5
13	0	0	1	0	508	538	0	0	39	5
14	0	0	1	0	511	516	0	1018	38	5
15	0	0	1	0	511	559	0	108	39	5
0	0	0	1	0	509	489	0	1018	39	5
1	0	0	1	0	520	485	0	0	38	5
2	0	0	1	0	507	511	0	673	38	5
3	0	0	1	0	518	519	0	0	39	5
4	0	0	1	0	509	502	0	1018	39	5
5	0	0	1	0	522	594	0	0	39	5
6	0	0	1	0	513	615	0	1018	38	5
7	0	0	1	0	513	518	0	0	39	5
8	0	0	1	0	505	398	0	1018	38	5
9	0	0	1	0	521	462	0	0	38	5
10	0	0	1	0	512	485	0	1018	38	5
11	0	0	1	0	511	497	0	0	38	5
12	0	0	1	0	506	514	0	1018	38	5
13	0	0	1	0	522	518	0	454	39	5
14	0	0	1	0	504	521	0	0	38	5
15	0	0	1	0	523	540	0	0	39	5
0	0	0	1	0	507	551	0	464	39	5
1	0	0	1	0	520	524	0	0	39	5
2	0	0	1	0	508	504	0	0	38	5
3	0	0	1	0	519	540	0	0	38	5
4	0	0	1	0	504	517	0	1018	39	5
5	0	0	1	0	519	544	0	0	38	5
6	0	0	1	0	504	548	0	1018	38	5
7	0	0	1	0	523	556	0	0	39	5
8	0	0	1	0	503	535	0	1018	38	5
9	0	0	1	0	524	533	0	0	38	5
10	0	0	1	0	502	547	0	1018	38	5
11	0	0	1	0	522	565	0	0	39	5
12	0	0	1	0	505	510	0	263	39	5
13	0	0	1	0	514	574	0	0	39	5
14	0	0	1	0	504	541	0	289	38	5
15	0	0	1	0	517	526	0	0	39	5
0	0	0	1	0	508	520	0	1018	39	5
1	0	0	1	0	515	470	0	764	39	5
2	0	0	1	0	510	475	0	1018	38	5
3	0	0	1	0	515	473	0	1018	38	5
4	0	0	1	0	503	466	0	1018	39	5
5	0	0	1	0	513	510	0	0	38	5
6	0	0	1	0	511	476	0	0	38	5
7	0	0	1	0	519	491	0	0	39	5
8	0	0	1	0	511	510	0	0	39	5
9	0	0	1	0	519	487	0	0	39	5
10	0	0	1	0	508	534	0	0	38	5
11	0	0	1	0	518	509	0	0	39	5
12	0	0	1	0	509	492	0	0	39	5
13	0	0	1	0	516	570	0	0	39	5
14	0	0	1	0	506	489	0	0	38	5
15	0	0	1	0	520	512	0	0	39	5
0	0	0	1	0	505	502	0	0	39	5
1	0	0	1	0	513	527	0	0	39	5
2	0	0	1	0	498	532	0	1018	38	5
3	0	0	1	0	514	504	0	0	39	5
4	0	0	1	0	513	494	0	0	39	5
5	0	0	1	0	514	498	0	0	39	5
6	0	0	1	0	503	504	0	0	38	5
7	0	0	1	0	519	515	0	0	39	5
8	0	0	1	0	511	574	0	151	39	5
9	0	0	1	0	515	512	0	0	39	5
10	0	0	1	0	504	507	0	758	38	5
11	0	0	1	0	515	497	0	56	39	5
12	0	0	1	0	504	475	0	469	39	5
13	0	0	1	0	516	522	0	100	39	5
14	0	0	1	0	508	524	0	478	38	5
15	0	0	1	0	521	527	0	188	39	5
0	0	0	1	0	508	513	0	718	39	5
1	0	0	1	0	519	503	0	284	39	5
2	0	0	1	0	511	511	0	640	38	5
3	0	0	1	0	512	531	0	314	39	5
4	0	0	1	0	508	628	0	1018	39	5
5	0	0	1	0	513	533	0	433	39	5
6	0	0	1	0	510	434	0	996	38	5
7	0	0	1	0	520	489	0	415	39	5
8	0	0	1	0	508	495	0	1018	39	5
9	0	0	1	0	513	512	0	478	39	5
10	0	0	1	0	508	531	0	1018	38	5
11	0	0	1	0	518	529	0	533	39	5
12	0	0	1	0	505	489	0	998	39	4
13	0	0	1	0	518	533	0	433	39	4
14	0	0	1	0	506	508	0	1018	38	4
15	0	0	1	0	518	512	0	469	39	4
0	0	0	1	0	504	510	0	1018	39	4
1	0	0	1	0	516	513	0	550	39	4
2	0	0	1	0	503	536	0	905	38	4
3	0	0	1	0	515	543	0	372	39	4
4	0	0	1	0	504	528	0	1018	39	4
5	0	0	1	0	522	496	0	556	39	4
6	0	0	1	0	511	517	0	1018	38	4
7	0	0	1	0	519	559	0	560	39	4
8	0	0	1	0	508	533	0	943	39	4
9	0	0	1	0	523	518	0	279	39	3
10	0	0	1	0	511	526	0	1018	38	3
11	0	0	1	0	515	501	0	292	39	3
12	0	0	1	0	515	564	0	985	39	3
13	0	0	1	0	511	514	0	292	39	3
14	0	0	1	0	508	476	0	1016	38	3
15	0	0	1	0	522	493	0	317	39	3
0	0	0	1	0	511	504	0	1018	39	3
1	0	0	1	0	520	491	0	325	39	3
2	0	0	1	0	504	472	0	1018	38	3
3	0	0	1	0	518	498	0	348	39	3
4	0	0	1	0	510	473	0	1018	39	4
5	0	0	1	0	515	486	0	378	39	4
6	0	0	1	0	510	510	0	764	38	4
7	0	0	1	0	514	503	0	203	39	4
8	0	0	1	0	509	496	0	1018	39	4
9	0	0	1	0	512	503	0	414	39	4
10	0	0	1	0	504	487	0	1018	38	4
11	0	0	1	0	516	501	0	309	39	4
12	0	0	1	0	500	486	0	1018	39	4
13	0	0	1	0	517	517	0	220	39	4
14	0	0	1	0	506	476	0	831	38	4
15	0	0	1	0	524	522	0	154	39	4
0	0	0	1	0	507	523	0	662	39	4
1	0	0	1	0	518	505	0	222	39	5
2	0	0	1	0	505	500	0	1018	38	5
3	0	0	1	0	520	519	0	451	39	5
4	0	0	1	0	506	527	0	1018	38	5
5	0	0	1	0	519	519	0	435	39	5
6	0	0	1	0	502	505	0	752	38	5
7	0	0	1	0	517	499	0	70	39	5
8	0	0	1	0	505	487	0	1018	39	5
9	0	0	1	0	521	523	0	199	39	5
10	0	0	1	0	504	501	0	876	38	5
11	0	0	1	0	512	529	0	158	39	5
12	0	0	1	0	509	493	0	613	39	5
13	0	0	1	0	519	487	0	85	39	5
14	0	0	1	0	507	528	0	1018	38	5
15	0	0	1	0	515	596	0	441	39	5
0	0	0	1	0	510	638	0	1018	39	5
1	0	0	1	0	521	508	0	240	39	5
2	0	0	1	0	506	411	0	1018	38	5
3	0	0	1	0	517	474	0	226	39	5
4	0	0	1	0	514	513	0	1018	39	5
5	0	0	1	0	514	583	0	264	39	5
6	0	0	1	0	507	497	0	0	38	5
7	0	0	1	0	521	500	0	0	39	5
8	0	0	1	0	512	539	0	664	39	5
9	0	0	1	0	513	517	0	63	39	5
10	0	0	1	0	504	535	0	933	38	5
11	0	0	1	0	518	541	0	258	39	5
12	0	0	1	0	499	510	0	1018	39	5
13	0	0	1	0	522	545	0	504	38	5
14	0	0	1	0	504	541	0	1018	38	5
15	0	0	1	0	516	526	0	174	38	5
0	0	0	1	0	509	529	0	0	39	5
1	0	0	1	0	517	528	0	0	39	5
2	0	0	1	0	513	540	0	283	38	5
3	0	0	1	0	516	560	0	42	39	5
4	0	0	1	0	510	536	0	1018	39	5
5	0	0	1	0	521	561	0	398	39	5
6	0	0	1	0	512	553	0	910	38	5
7	0	0	1	0	521	520	0	279	39	5
8	0	0	1	0	505	530	0	1018	39	5
9	0	0	1	0	520	512	0	481	39	5
10	0	0	1	0	508	500	0	665	38	5
11	0	0	1	0	512	490	0	181	39	5
12	0	0	1	0	508	497	0	1018	39	5
13	0	0	1	0	510	480	0	526	39	5
14	0	0	1	0	508	471	0	1018	38	5
15	0	0	1	0	513	499	0	384	39	5
0	0	0	1	0	508	461	0	603	39	5
1	0	0	1	0	520	474	0	0	38	5
2	0	0	1	0	511	496	0	866	38	5
3	0	0	1	0	515	488	0	120	39	5
4	0	0	1	0	511	525	0	1017	39	5
5	0	0	1	0	520	499	0	165	39	5
6	0	0	1	0	511	519	0	469	38	5
7	0	0	1	0	517	508	0	122	38	5
8	0	0	1	0	513	503	0	833	39	5
9	0	0	1	0	519	481	0	170	39	5
10	0	0	1	0	509	518	0	617	38	5
11	0	0	1	0	513	509	0	147	39	5
12	0	0	1	0	515	522	0	588	39	5
13	0	0	1	0	516	501	0	101	39	5
14	0	0	1	0	505	527	0	619	38	5
15	0	0	1	0	516	535	0	56	39	5
0	0	0	1	0	510	514	0	936	39	5
1	0	0	1	0	521	473	0	287	39	5
2	0	0	1	0	508	523	0	1018	38	5
3	0	0	1	0	514	517	0	472	39	5
4	0	0	1	0	507	531	0	1018	39	5
5	0	0	1	0	519	511	0	477	39	5
6	0	0	1	0	503	511	0	840	38	5
7	0	0	1	0	517	492	0	341	39	5
8	0	0	1	0	509	514	0	1011	39	5
9	0	0	1	0	523	504	0	348	39	5
10	0	0	1	0	511	579	0	1018	38	5
11	0	0	1	0	515	600	0	1018	39	5
12	0	0	1	0	511	556	0	1018	39	5
13	0	0	1	0	520	416	0	1018	38	5
14	0	0	1	0	512	439	0	1018	38	5
15	0	0	1	0	516	482	0	722	39	5
0	0	0	1	0	508	487	0	398	39	5
1	0	0	1	0	515	536	0	109	39	5
2	0	0	1	0	507	508	0	702	38	5
3	0	0	1	0	517	534	0	15	39	5
4	0	0	1	0	510	496	0	358	39	5
5	0	0	1	0	519	530	0	0	39	5
6	0	0	1	0	509	515	0	0	38	5
7	0	0	1	0	512	529	0	0	39	5
8	0	0	1	0	509	497	0	0	39	5
9	0	0	1	0	517	547	0	0	39	5
10	0	0	1	0	511	508	0	604	38	5
11	0	0	1	0	513	537	0	92	39	5
12	0	0	1	0	514	519	0	831	39	5
13	0	0	1	0	515	543	0	189	39	5
14	0	0	1	0	513	542	0	0	38	5
15	0	0	1	0	520	553	0	0	39	5
0	0	0	1	0	510	545	0	322	39	5
1	0	0	1	0	510	532	0	0	39	5
2	0	0	1	0	512	535	0	332	38	5
3	0	0	1	0	515	544	0	0	39	5
4	0	0	1	0	514	531	0	0	39	5
5	0	0	1	0	514	517	0	0	39	5
6	0	0	1	0	512	469	0	255	38	5
7	0	0	1	0	519	504	0	0	39	5
8	0	0	1	0	513	502	0	503	39	5
9	0	0	1	0	520	474	0	371	39	5
10	0	0	1	0	511	472	0	510	38	5
11	0	0	1	0	520	498	0	195	39	5
12	0	0	1	0	510	502	0	390	39	5
13	0	0	1	0	508	510	0	127	39	5
14	0	0	1	0	505	475	0	521	38	5
15	0	0	1	0	516	520	0	615	39	5
0	0	0	1	0	509	519	0	518	39	5
1	0	0	1	0	515	497	0	610	39	5
2	0	0	1	0	512	513	0	858	38	5
3	0	0	1	0	516	505	0	1018	39	5
4	0	0	1	0	507	499	0	506	39	5
5	0	0	1	0	512	529	0	350	39	5
6	0	0	1	0	512	505	0	0	38	5
7	0	0	1	0	512	538	0	0	38	5
8	0	0	1	0	504	518	0	0	39	5
9	0	0	1	0	515	518	0	547	39	5
10	0	0	1	0	508	511	0	0	38	5
11	0	0	1	0	520	525	0	11	39	5
12	0	0	1	0	507	519	0	0	39	5
13	0	0	1	0	513	486	0	0	39	5
14	0	0	1	0	519	496	0	0	38	5
15	0	0	1	0	515	505	0	0	39	5
0	0	0	1	0	510	491	0	0	39	5
1	0	0	1	0	514	531	0	0	39	5
2	0	0	1	0	508	510	0	0	38	5
3	0	0	1	0	511	487	0	0	38	5
4	0	0	1	0	507	536	0	0	39	5
5	0	0	1	0	523	515	0	113	39	5
6	0	0	1	0	508	550	0	854	38	5
7	0	0	1	0	519	582	0	714	39	5
8	0	0	1	0	508	543	0	577	39	5
9	0	0	1	0	510	435	0	291	39	5
10	0	0	1	0	502	455	0	0	38	5
11	0	0	1	0	513	519	0	0	39	5
12	0	0	1	0	505	518	0	0	39	5
13	0	0	1	0	515	522	0	312	39	5
14	0	0	1	0	509	507	0	0	38	5
15	0	0	1	0	515	510	0	0	39	5
0	0	0	1	0	510	500	0	198	39	5
1	0	0	1	0	511	543	0	38	39	5
2	0	0	1	0	511	521	0	939	38	5
3	0	0	1	0	525	527	0	457	39	5
4	0	0	1	0	500	507	0	401	39	5
5	0	0	1	0	511	515	0	293	39	5
6	0	0	1	0	512	536	0	294	38	5
7	0	0	1	0	515	535	0	185	39	5
8	0	0	1	0	507	549	0	362	39	5
9	0	0	1	0	516	497	0	349	39	5
10	0	0	1	0	509	541	0	337	38	5
11	0	0	1	0	518	552	0	502	39	5
12	0	0	1	0	509	541	0	516	39	5
13	0	0	1	0	518	520	0	660	39	5
14	0	0	1	0	507	536	0	420	38	5
15	0	0	1	0	517	561	0	513	39	5
0	0	0	1	0	510	497	0	0	39	5
1	0	0	1	0	512	492	0	0	39	5
2	0	0	1	0	509	480	0	0	38	5
3	0	0	1	0	510	481	0	23	39	5
4	0	0	1	0	511	473	0	0	39	5
5	0	0	1	0	512	474	0	0	39	5
6	0	0	1	0	512	488	0	0	38	5
7	0	0	1	0	517	513	0	53	39	5
8	0	0	1	0	504	488	0	458	39	5
9	0	0	1	0	510	482	0	480	39	5
10	0	0	1	0	509	503	0	315	38	5
11	0	0	1	0	518	515	0	189	39	5
12	0	0	1	0	508	521	0	0	39	5
13	0	0	1	0	515	512	0	0	38	5
14	0	0	1	0	517	488	0	308	38	5
15	0	0	1	0	517	534	0	141	39	5
0	0	0	1	0	516	487	0	0	39	5
1	0	0	1	0	513	542	0	130	39	5
2	0	0	1	0	515	507	0	0	38	5
3	0	0	1	0	513	525	0	66	38	5
4	0	0	1	0	513	517	0	575	39	5
5	0	0	1	0	513	499	0	569	39	5
6	0	0	1	0	510	536	0	460	38	5
7	0	0	1	0	518	525	0	411	39	5
8	0	0	1	0	513	521	0	584	39	5
9	0	0	1	0	515	527	0	759	39	5
10	0	0	1	0	511	528	0	547	38	5
11	0	0	1	0	517	494	0	850	38	5
12	0	0	1	0	518	493	0	527	39	5
13	0	0	1	0	511	531	0	1018	38	5
14	0	0	1	0	507	505	0	487	38	5
15	0	0	1	0	519	514	0	707	39	5
0	0	0	1	0	511	503	0	0	39	5
1	0	0	1	0	515	502	0	60	39	5
2	0	0	1	0	510	504	0	0	38	5
3	0	0	1	0	514	508	0	41	39	5
4	0	0	1	0	511	556	0	0	39	5
5	0	0	1	0	512	610	0	0	39	5
6	0	0	1	0	509	612	0	0	38	5
7	0	0	1	0	511	445	0	0	38	5
8	0	0	1	0	514	433	0	284	39	5
9	0	0	1	0	515	475	0	220	39	5
10	0	0	1	0	513	502	0	0	38	5
11	0	0	1	0	519	523	0	0	39	5
12	0	0	1	0	516	509	0	0	39	5
13	0	0	1	0	509	520	0	59	38	5
14	0	0	1	0	506	510	0	273	38	5
15	0	0	1	0	513	529	0	365	39	5
0	0	0	1	0	515	513	0	480	39	5
1	0	0	1	0	512	505	0	588	39	5
2	0	0	1	0	516	519	0	280	38	5
3	0	0	1	0	512	519	0	312	38	5
4	0	0	1	0	506	532	0	275	39	5
5	0	0	1	0	511	530	0	193	39	5
6	0	0	1	0	505	527	0	360	38	5
7	0	0	1	0	514	529	0	413	39	5
8	0	0	1	0	508	550	0	351	39	5
9	0	0	1	0	518	515	0	363	39	5
10	0	0	1	0	507	538	0	314	38	5
11	0	0	1	0	516	532	0	137	39	5
12	0	0	1	0	510	545	0	284	39	5
13	0	0	1	0	514	542	0	304	39	5
14	0	0	1	0	513	518	0	217	38	5
15	0	0	1	0	511	513	0	141	39	5
0	0	0	1	0	517	482	0	277	39	5
1	0	0	1	0	510	464	0	240	39	5
2	0	0	1	0	513	501	0	345	38	5
3	0	0	1	0	520	478	0	419	39	5
4	0	0	1	0	519	479	0	460	39	5
5	0	0	1	0	515	480	0	365	39	5
6	0	0	1	0	513	489	0	508	38	5
7	0	0	1	0	510	496	0	551	39	5
8	0	0	1	0	502	495	0	357	39	5
9	0	0	1	0	513	510	0	348	38	5
10	0	0	1	0	498	504	0	449	38	5
11	0	0	1	0	515	502	0	449	39	5
12	0	0	1	0	521	507	0	590	39	5
13	0	0	1	0	520	499	0	631	39	5
14	0	0	1	0	514	508	0	455	38	5
15	0	0	1	0	514	529	0	538	39	5
0	0	0	1	0	518	499	0	303	39	5
1	0	0	1	0	509	503	0	386	39	5
2	0	0	1	0	509	531	0	432	38	5
3	0	0	1	0	516	492	0	420	39	5
4	0	0	1	0	510	534	0	610	39	5
5	0	0	1	0	514	524	0	683	39	5
6	0	0	1	0	514	518	0	330	38	5
7	0	0	1	0	514	516	0	323	39	5
8	0	0	1	0	504	509	0	546	39	5
9	0	0	1	0	509	539	0	556	39	5
10	0	0	1	0	513	523	0	312	38	5
11	0	0	1	0	512	515	0	326	39	5
12	0	0	1	0	511	508	0	256	39	5
13	0	0	1	0	519	490	0	330	39	5
14	0	0	1	0	514	508	0	493	38	5
15	0	0	1	0	507	516	0	581	39	5
0	0	0	1	0	513	543	0	368	39	5
1	0	0	1	0	511	531	0	457	39	5
2	0	0	1	0	512	517	0	309	38	5
3	0	0	1	0	515	492	0	363	39	5
4	0	0	1	0	508	527	0	444	39	5
5	0	0	1	0	513	513	0	437	39	5
6	0	0	1	0	517	513	0	290	38	5
7	0	0	1	0	504	516	0	402	39	5
8	0	0	1	0	511	518	0	387	39	5
9	0	0	1	0	510	496	0	370	39	5
10	0	0	1	0	517	507	0	456	38	5
11	0	0	1	0	511	493	0	614	39	5
12	0	0	1	0	511	566	0	385	39	5
13	0	0	1	0	511	615	0	474	39	5
14	0	0	1	0	517	539	0	486	38	5
15	0	0	1	0	511	469	0	448	39	5
0	0	0	1	0	516	438	0	399	39	5
1	0	0	1	0	510	479	0	455	39	5
2	0	0	1	0	509	528	0	386	38	5
3	0	0	1	0	513	526	0	470	39	5
4	0	0	1	0	514	515	0	332	39	5
5	0	0	1	0	516	523	0	474	39	5
6	0	0	1	0	513	535	0	346	38	5
7	0	0	1	0	512	529	0	399	39	5
8	0	0	1	0	512	509	0	513	39	5
9	0	0	1	0	515	534	0	566	39	5
10	0	0	1	0	514	539	0	588	38	5
11	0	0	1	0	513	527	0	678	39	5
12	0	0	1	0	518	504	0	385	39	5
13	0	0	1	0	516	499	0	417	39	5
14	0	0	1	0	506	515	0	335	38	5
15	0	0	1	0	517	544	0	417	39	5
0	0	0	1	0	514	524	0	404	39	5
1	0	0	1	0	507	553	0	487	39	5
2	0	0	1	0	514	571	0	407	38	5
3	0	0	1	0	516	489	0	413	39	5
4	0	0	1	0	511	532	0	460	39	5
5	0	0	1	0	508	499	0	600	39	5
6	0	0	1	0	511	520	0	276	38	5
7	0	0	1	0	508	540	0	465	39	5
8	0	0	1	0	516	494	0	319	39	5
9	0	0	1	0	515	474	0	477	39	5
10	0	0	1	0	508	500	0	284	38	5
11	0	0	1	0	515	475	0	451	39	5
12	0	0	1	0	507	453	0	387	39	5
13	0	0	1	0	508	502	0	445	39	5
14	0	0	1	0	516	505	0	330	38	5
15	0	0	1	0	508	488	0	670	39	5
0	0	0	1	0	511	487	0	356	39	5
1	0	0	1	0	508	496	0	435	39	5
2	0	0	1	0	506	503	0	255	38	5
3	0	0	1	0	513	501	0	314	39	5
4	0	0	1	0	520	509	0	392	39	5
5	0	0	1	0	510	510	0	417	39	5
6	0	0	1	0	517	484	0	401	38	5
7	0	0	1	0	513	498	0	630	39	5
8	0	0	1	0	514	525	0	329	39	5
9	0	0	1	0	506	502	0	493	39	5
10	0	0	1	0	513	512	0	316	38	5
11	0	0	1	0	514	502	0	473	39	5
12	0	0	1	0	515	506	0	199	39	5
13	0	0	1	0	512	511	0	310	39	5
14	0	0	1	0	518	512	0	415	38	5
15	0	0	1	0	510	504	0	532	39	5
0	0	0	1	0	519	541	0	269	39	5
1	0	0	1	0	513	478	0	440	39	5
2	0	0	1	0	511	508	0	275	38	5
3	0	0	1	0	508	514	0	414	39	5
4	0	0	1	0	518	499	0	345	39	5
5	0	0	1	0	508	521	0	430	39	5
6	0	0	1	0	522	528	0	253	38	5
7	0	0	1	0	508	492	0	454	39	5
8	0	0	1	0	517	524	0	265	39	5
9	0	0	1	0	511	534	0	386	39	5
10	0	0	1	0	509	523	0	274	38	5
11	0	0	1	0	509	511	0	421	39	5
12	0	0	1	0	514	515	0	314	39	5
13	0	0	1	0	507	520	0	417	39	5
14	0	0	1	0	520	527	0	241	38	5
15	0	0	1	0	508	518	0	371	39	5
0	0	0	1	0	513	531	0	297	39	5
1	0	0	1	0	509	522	0	378	39	5
2	0	0	1	0	518	499	0	323	38	5
3	0	0	1	0	514	473	0	457	39	5
4	0	0	1	0	511	545	0	352	39	5
5	0	0	1	0	507	484	0	491	39	5
6	0	0	1	0	514	510	0	387	38	5
7	0	0	1	0	519	506	0	700	39	5
8	0	0	1	0	508	557	0	390	39	5
9	0	0	1	0	514	464	0	642	39	5
10	0	0	1	0	511	578	0	399	38	5
11	0	0	1	0	509	605	0	1018	38	5
12	0	0	1	0	519	544	0	322	39	5
13	0	0	1	0	496	403	0	1018	39	5
14	0	0	1	0	515	470	0	352	38	5
15	0	0	1	0	516	491	0	1018	39	5
0	0	0	1	0	511	527	0	108	39	5
1	0	0	1	0	519	496	0	1018	38	5
2	0	0	1	0	519	505	0	278	38	5
3	0	0	1	0	515	514	0	1018	38	5
4	0	0	1	0	517	517	0	0	39	5
5	0	0	1	0	509	505	0	1018	39	5
6	0	0	1	0	519	534	0	0	38	5
7	0	0	1	0	511	568	0	760	39	5
8	0	0	1	0	509	520	0	0	39	5
9	0	0	1	0	517	520	0	0	38	5
10	0	0	1	0	519	512	0	0	38	5
11	0	0	1	0	510	512	0	107	39	5
12	0	0	1	0	515	538	0	0	39	5
13	0	0	1	0	518	557	0	10	39	5
14	0	0	1	0	518	550	0	0	38	5
15	0	0	1	0	513	527	0	0	39	5
0	0	0	1	0	514	549	0	0	39	5
1	0	0	1	0	502	535	0	0	39	5
2	0	0	1	0	520	539	0	0	38	5
3	0	0	1	0	509	559	0	20	39	5
4	0	0	1	0	508	524	0	0	39	5
5	0	0	1	0	513	521	0	349	39	5
6	0	0	1	0	521	501	0	0	38	5
7	0	0	1	0	513	496	0	139	38	5
8	0	0	1	0	520	481	0	0	39	5
9	0	0	1	0	508	473	0	422	39	5
10	0	0	1	0	516	489	0	0	38	5
11	0	0	1	0	511	499	0	439	39	5
12	0	0	1	0	512	495	0	0	39	5
13	0	0	1	0	500	491	0	206	39	5
14	0	0	1	0	514	512	0	0	38	5
15	0	0	1	0	509	466	0	329	39	5
0	0	0	1	0	513	530	0	103	39	5
1	0	0	1	0	504	472	0	497	39	5
2	0	0	1	0	518	519	0	128	38	5
3	0	0	1	0	511	488	0	492	39	5
4	0	0	1	0	514	484	0	113	39	5
5	0	0	1	0	511	506	0	376	39	5
6	0	0	1	0	516	543	0	175	38	5
7	0	0	1	0	506	526	0	341	39	5
8	0	0	1	0	518	515	0	252	39	5
9	0	0	1	0	509	492	0	507	39	5
10	0	0	1	0	526	519	0	205	38	5
11	0	0	1	0	513	500	0	477	39	5
12	0	0	1	0	519	511	0	254	39	5
13	0	0	1	0	513	505	0	576	39	5
14	0	0	1	0	513	513	0	252	38	5
15	0	0	1	0	510	508	0	476	39	5
0	0	0	1	0	519	528	0	270	39	5
1	0	0	1	0	512	513	0	607	39	5
2	0	0	1	0	516	501	0	239	38	5
3	0	0	1	0	508	488	0	590	39	5
4	0	0	1	0	518	514	0	267	39	5
5	0	0	1	0	510	528	0	509	39	5
6	0	0	1	0	518	518	0	263	38	5
7	0	0	1	0	505	523	0	560	39	5
8	0	0	1	0	517	537	0	253	39	5
9	0	0	1	0	509	553	0	414	39	5
10	0	0	1	0	521	517	0	247	38	5
11	0	0	1	0	511	492	0	523	39	5
12	0	0	1	0	519	509	0	258	39	5
13	0	0	1	0	511	493	0	513	39	5
14	0	0	1	0	519	496	0	321	38	5
15	0	0	1	0	509	495	0	617	39	5
0	0	0	1	0	513	537	0	292	39	5
1	0	0	1	0	511	507	0	488	39	5
2	0	0	1	0	518	534	0	303	38	5
3	0	0	1	0	511	556	0	661	39	5
4	0	0	1	0	513	592	0	318	38	5
5	0	0	1	0	508	537	0	906	38	5
6	0	0	1	0	520	444	0	224	38	5
7	0	0	1	0	508	448	0	529	39	5
8	0	0	1	0	517	501	0	216	39	5
9	0	0	1	0	500	507	0	671	39	5
10	0	0	1	0	523	524	0	225	38	5
11	0	0	1	0	504	485	0	441	39	5
12	0	0	1	0	524	527	0	191	39	5
13	0	0	1	0	505	519	0	347	39	5
14	0	0	1	0	516	513	0	217	38	5
15	0	0	1	0	505	516	0	684	39	5
0	0	0	1	0	518	523	0	226	39	5
1	0	0	1	0	509	516	0	528	39	5
2	0	0	1	0	513	549	0	243	38	5
3	0	0	1	0	508	503	0	610	39	5
4	0	0	1	0	512	535	0	249	39	5
5	0	0	1	0	512	515	0	659	39	5
6	0	0	1	0	517	530	0	198	38	5
7	0	0	1	0	503	556	0	496	39	5
8	0	0	1	0	513	521	0	198	39	5
9	0	0	1	0	512	545	0	437	39	5
10	0	0	1	0	517	550	0	225	38	5
11	0	0	1	0	511	538	0	518	39	5
12	0	0	1	0	513	548	0	273	39	5
13	0	0	1	0	505	513	0	600	39	5
14	0	0	1	0	518	524	0	233	38	5
15	0	0	1	0	510	484	0	1018	39	5
0	0	0	1	0	509	469	0	176	39	5
1	0	0	1	0	514	479	0	412	39	5
2	0	0	1	0	522	472	0	152	38	5
3	0	0	1	0	504	491	0	497	39	5
4	0	0	1	0	522	488	0	163	39	5
5	0	0	1	0	504	465	0	301	39	5
6	0	0	1	0	519	512	0	210	38	5
7	0	0	1	0	507	495	0	397	39	5
8	0	0	1	0	521	478	0	225	39	5
9	0	0	1	0	505	505	0	492	39	5
10	0	0	1	0	521	509	0	237	38	5
11	0	0	1	0	499	502	0	519	39	5
12	0	0	1	0	516	522	0	250	39	5
13	0	0	1	0	512	499	0	382	39	5
14	0	0	1	0	515	486	0	323	38	5
15	0	0	1	0	509	552	0	466	39	5
0	0	0	1	0	517	500	0	288	39	5
1	0	0	1	0	515	515	0	443	39	5
2	0	0	1	0	519	534	0	321	38	5
3	0	0	1	0	511	497	0	575	39	5
4	0	0	1	0	519	478	0	324	39	5
5	0	0	1	0	505	545	0	494	39	5
6	0	0	1	0	514	516	0	342	38	5
7	0	0	1	0	505	515	0	494	39	5
8	0	0	1	0	520	531	0	358	39	5
9	0	0	1	0	502	500	0	529	39	5
10	0	0	1	0	526	537	0	355	38	5
11	0	0	1	0	507	510	0	550	39	5
12	0	0	1	0	524	530	0	355	39	5
13	0	0	1	0	509	500	0	585	39	5
14	0	0	1	0	514	520	0	349	38	5
15	0	0	1	0	510	524	0	539	39	5
0	0	0	1	0	514	509	0	357	39	5
1	0	0	1	0	510	520	0	559	39	5
2	0	0	1	0	524	530	0	355	38	5
3	0	0	1	0	505	474	0	528	39	5
4	0	0	1	0	518	504	0	357	38	5
5	0	0	1	0	511	527	0	835	38	5
6	0	0	1	0	515	496	0	336	38	5
7	0	0	1	0	501	583	0	711	39	5
8	0	0	1	0	518	617	0	293	39	5
9	0	0	1	0	505	529	0	564	39	5
10	0	0	1	0	514	411	0	296	38	5
11	0	0	1	0	508	465	0	745	39	5
12	0	0	1	0	520	473	0	251	39	5
13	0	0	1	0	503	539	0	487	39	5
14	0	0	1	0	517	503	0	239	38	5
15	0	0	1	0	505	503	0	416	39	5
0	0	0	1	0	524	527	0	267	39	5
1	0	0	1	0	505	516	0	401	38	5
2	0	0	1	0	517	498	0	323	38	5
3	0	0	1	0	513	541	0	493	39	5
4	0	0	1	0	515	535	0	305	39	5
5	0	0	1	0	514	513	0	505	39	5
6	0	0	1	0	518	534	0	307	38	5
7	0	0	1	0	509	525	0	552	39	5
8	0	0	1	0	517	535	0	313	39	5
9	0	0	1	0	509	548	0	489	39	5
10	0	0	1	0	511	543	0	324	38	5
11	0	0	1	0	511	518	0	445	39	5
12	0	0	1	0	526	548	0	349	39	5
13	0	0	1	0	508	528	0	487	39	5
14	0	0	1	0	519	545	0	352	38	5
15	0	0	1	0	504	548	0	675	39	5
0	0	0	1	0	515	511	0	337	39	5
1	0	0	1	0	506	493	0	540	39	5
2	0	0	1	0	525	547	0	339	38	5
3	0	0	1	0	506	484	0	624	39	5
4	0	0	1	0	520	496	0	351	39	5
5	0	0	1	0	510	479	0	496	39	5
6	0	0	1	0	524	469	0	329	38	5
7	0	0	1	0	501	491	0	571	39	5
8	0	0	1	0	521	484	0	334	39	5
9	0	0	1	0	508	479	0	535	39	5
10	0	0	1	0	519	525	0	337	38	5
11	0	0	1	0	508	523	0	500	39	5
12	0	0	1	0	522	523	0	341	39	5
13	0	0	1	0	507	518	0	498	39	5
14	0	0	1	0	521	483	0	355	38	5
15	0	0	1	0	501	487	0	508	39	5
0	0	0	1	0	519	514	0	359	39	5
1	0	0	1	0	509	520	0	548	39	5
2	0	0	1	0	522	503	0	355	38	5
3	0	0	1	0	502	512	0	585	39	5
4	0	0	1	0	526	513	0	364	39	5
5	0	0	1	0	504	503	0	479	39	5
6	0	0	1	0	521	493	0	359	38	5
7	0	0	1	0	503	514	0	521	39	5
8	0	0	1	0	517	508	0	367	39	5
9	0	0	1	0	509	527	0	585	39	5
10	0	0	1	0	518	496	0	376	38	5
11	0	0	1	0	502	529	0	667	39	5
12	0	0	1	0	519	504	0	360	39	5
13	0	0	1	0	511	503	0	625	39	5
14	0	0	1	0	520	516	0	337	38	5
15	0	0	1	0	508	512	0	507	39	5
0	0	0	1	0	513	529	0	346	39	5
1	0	0	1	0	512	509	0	532	39	5
2	0	0	1	0	521	544	0	340	38	5
3	0	0	1	0	503	553	0	505	39	5
4	0	0	1	0	522	500	0	348	39	5
5	0	0	1	0	507	528	0	670	39	5
6	0	0	1	0	514	487	0	347	38	5
7	0	0	1	0	506	495	0	536	39	5
8	0	0	1	0	517	532	0	355	39	5
9	0	0	1	0	501	480	0	637	39	5
10	0	0	1	0	518	512	0	323	38	5
11	0	0	1	0	508	510	0	763	39	5
12	0	0	1	0	518	520	0	299	39	5
13	0	0	1	0	504	590	0	579	38	5
14	0	0	1	0	521	623	0	284	38	5
15	0	0	1	0	506	508	0	553	39	5
0	0	0	1	0	522	410	0	282	39	5
1	0	0	1	0	508	470	0	593	39	5
2	0	0	1	0	526	499	0	284	38	5
3	0	0	1	0	506	516	0	464	39	5
4	0	0	1	0	517	508	0	276	39	5
5	0	0	1	0	509	521	0	590	39	5
6	0	0	1	0	521	502	0	278	38	5
7	0	0	1	0	504	534	0	595	39	5
8	0	0	1	0	519	533	0	274	39	5
9	0	0	1	0	504	502	0	553	39	5
10	0	0	1	0	517	518	0	276	38	5
11	0	0	1	0	504	545	0	556	39	5
12	0	0	1	0	522	511	0	263	39	5
13	0	0	1	0	510	527	0	531	39	5
14	0	0	1	0	514	521	0	262	38	5
15	0	0	1	0	510	552	0	519	39	5
0	0	0	1	0	525	538	0	273	39	5
1	0	0	1	0	502	525	0	440	39	5
2	0	0	1	0	527	545	0	281	38	5
3	0	0	1	0	508	521	0	444	39	5
4	0	0	1	0	522	538	0	318	39	5
5	0	0	1	0	505	550	0	500	39	5
6	0	0	1	0	523	492	0	317	38	5
7	0	0	1	0	502	516	0	493	39	5
8	0	0	1	0	521	515	0	331	39	5
9	0	0	1	0	505	459	0	543	39	5
10	0	0	1	0	518	496	0	342	38	5
11	0	0	1	0	505	500	0	512	39	5
12	0	0	1	0	512	484	0	343	39	5
13	0	0	1	0	507	482	0	480	39	5
14	0	0	1	0	521	471	0	357	38	5
15	0	0	1	0	510	503	0	619	39	5
0	0	0	1	0	522	497	0	359	39	5
1	0	0	1	0	504	501	0	516	39	5
2	0	0	1	0	530	499	0	352	38	4
3	0	0	1	0	511	506	0	566	39	4
4	0	0	1	0	519	505	0	356	39	4
5	0	0	1	0	507	500	0	588	39	4
6	0	0	1	0	519	522	0	363	38	4
7	0	0	1	0	504	517	0	524	39	4
8	0	0	1	0	521	497	0	352	39	4
9	0	0	1	0	512	492	0	524	39	4
10	0	0	1	0	519	484	0	359	38	4
11	0	0	1	0	498	527	0	628	39	4
12	0	0	1	0	519	531	0	358	39	4
13	0	0	1	0	504	529	0	579	39	4
14	0	0	1	0	520	515	0	368	38	4
15	0	0	1	0	512	513	0	563	39	4
0	0	0	1	0	518	535	0	355	39	4
1	0	0	1	0	508	491	0	831	39	4
2	0	0	1	0	519	534	0	332	38	4
3	0	0	1	0	505	500	0	494	39	4
4	0	0	1	0	523	491	0	315	39	4
5	0	0	1	0	507	526	0	492	39	4
6	0	0	1	0	515	526	0	323	38	4
7	0	0	1	0	508	513	0	552	39	4
8	0	0	1	0	525	498	0	340	39	4
9	0	0	1	0	504	520	0	527	39	4
10	0	0	1	0	519	516	0	332	38	4
11	0	0	1	0	509	530	0	553	39	4
12	0	0	1	0	523	540	0	339	39	4
13	0	0	1	0	503	517	0	550	39	4
14	0	0	1	0	524	507	0	343	38	4
15	0	0	1	0	505	493	0	560	39	4
0	0	0	1	0	524	528	0	336	39	4
1	0	0	1	0	506	505	0	529	39	4
2	0	0	1	0	518	515	0	348	38	4
3	0	0	1	0	504	514	0	517	39	4
4	0	0	1	0	524	502	0	346	39	4
5	0	0	1	0	508	556	0	602	39	4
6	0	0	1	0	527	599	0	350	38	4
7	0	0	1	0	510	595	0	643	39	4
8	0	0	1	0	524	439	0	354	39	4
9	0	0	1	0	505	414	0	777	39	4
10	0	0	1	0	533	494	0	336	38	4
11	0	0	1	0	503	511	0	460	39	4
12	0	0	1	0	520	550	0	315	39	4
13	0	0	1	0	505	522	0	598	39	4
14	0	0	1	0	525	531	0	323	38	4
15	0	0	1	0	505	518	0	561	39	4
0	0	0	1	0	525	514	0	322	39	4
1	0	0	1	0	508	519	0	601	39	4
2	0	0	1	0	528	552	0	347	38	4
3	0	0	1	0	507	527	0	509	39	4
4	0	0	1	0	523	541	0	321	39	4
5	0	0	1	0	503	489	0	605	39	4
6	0	0	1	0	519	548	0	317	38	4
7	0	0	1	0	510	513	0	725	39	4
8	0	0	1	0	519	552	0	308	39	4
9	0	0	1	0	508	510	0	854	39	4
10	0	0	1	0	529	537	0	288	38	4
11	0	0	1	0	498	538	0	578	39	4
12	0	0	1	0	523	541	0	263	39	4
13	0	0	1	0	506	536	0	589	39	4
14	0	0	1	0	524	567	0	263	38	4
15	0	0	1	0	502	534	0	707	39	4
0	0	0	1	0	531	502	0	249	39	4
1	0	0	1	0	503	477	0	551	39	4
2	0	0	1	0	519	512	0	242	38	4
3	0	0	1	0	504	480	0	566	39	4
4	0	0	1	0	519	497	0	256	39	4
5	0	0	1	0	508	481	0	673	39	4
6	0	0	1	0	518	476	0	245	38	4
7	0	0	1	0	512	483	0	669	39	4
8	0	0	1	0	516	500	0	248	39	4
9	0	0	1	0	504	489	0	728	39	4
10	0	0	1	0	522	496	0	228	38	4
11	0	0	1	0	506	501	0	479	39	4
12	0	0	1	0	525	496	0	229	39	4
13	0	0	1	0	507	489	0	564	39	4
14	0	0	1	0	523	504	0	248	38	4
15	0	0	1	0	502	489	0	590	39	4
0	0	0	1	0	526	525	0	234	39	4
1	0	0	1	0	510	505	0	574	39	4
2	0	0	1	0	524	512	0	236	38	4
3	0	0	1	0	501	507	0	522	39	4
4	0	0	1	0	521	523	0	237	39	4
5	0	0	1	0	507	499	0	397	39	4
6	0	0	1	0	517	516	0	266	38	4
7	0	0	1	0	503	520	0	448	39	4
8	0	0	1	0	517	514	0	290	39	4
9	0	0	1	0	509	504	0	619	39	4
10	0	0	1	0	522	527	0	303	38	4
11	0	0	1	0	511	543	0	585	39	4
12	0	0	1	0	524	504	0	304	39	4
13	0	0	1	0	501	500	0	470	39	4
14	0	0	1	0	521	527	0	309	38	4
15	0	0	1	0	502	526	0	628	39	4
0	0	0	1	0	521	526	0	338	39	4
1	0	0	1	0	499	529	0	735	39	4
2	0	0	1	0	517	507	0	305	38	4
3	0	0	1	0	510	524	0	905	39	4
4	0	0	1	0	519	543	0	289	39	4
5	0	0	1	0	509	518	0	862	39	4
6	0	0	1	0	526	497	0	253	38	4
7	0	0	1	0	508	497	0	1018	39	4
8	0	0	1	0	524	505	0	229	39	4
9	0	0	1	0	504	503	0	1018	39	4
10	0	0	1	0	523	515	0	165	38	4
11	0	0	1	0	503	509	0	732	39	4
12	0	0	1	0	526	515	0	116	39	4
13	0	0	1	0	502	562	0	1018	39	4
